Data from N_1_DEC_NC_4N_Splice17_11-36-22-568.txt Node
Date: Sat Mar 14 11:36:22 EDT 2020
User: sa697716
Spectrometer: FLMS03696
Trigger mode: 0
Integration Time (sec): 3.180400E-1
Scans to average: 20
Electric dark correction enabled: true
Nonlinearity correction enabled: true
Boxcar width: 5
XAxis mode: Wavelengths
Number of Pixels in Spectrum: 2048
>>>>>Begin Spectral Data<<<<<
187.83	-175820.34
188.298	1368.65
188.766	771.61
189.233	653.84
189.701	919.98
190.169	1277.93
190.636	482.92
191.104	432.35
191.571	75.17
192.039	-8.07
192.506	3.29
192.974	342.82
193.441	-429.46
193.908	-82.19
194.375	-21.51
194.842	46.37
195.31	69.46
195.777	111.83
196.244	192.8
196.711	97.29
197.177	79.72
197.644	54.04
198.111	49.97
198.578	31.36
199.045	-10.37
199.511	-63.31
199.978	-169.23
200.445	-103.49
200.911	-141.1
201.378	-216.71
201.844	-163.45
202.31	-337.86
202.777	-364.69
203.243	-199.93
203.709	-202.68
204.176	-196.21
204.642	-149.71
205.108	-122.04
205.574	-93.31
206.04	-117.57
206.506	-108.75
206.972	-131.03
207.438	-136.43
207.903	-169.31
208.369	-112.36
208.835	-99.16
209.301	-111.26
209.766	-134.19
210.232	-131.71
210.697	-182.91
211.163	-225.29
211.628	-389.16
212.094	-265.91
212.559	-215.16
213.024	-114.46
213.49	-143.44
213.955	-136.48
214.42	-150.38
214.885	-132.36
215.35	-105.07
215.815	-41.66
216.28	-25.82
216.745	-1.73
217.21	13.73
217.675	-23.71
218.14	-19.48
218.604	-40.08
219.069	-26.87
219.534	15.37
219.998	2.78
220.463	-20.35
220.927	-103.1
221.392	-101.78
221.856	-83.76
222.32	-177.42
222.785	-178.44
223.249	-241.99
223.713	-253.15
224.177	-257.75
224.642	-395.4
225.106	-475.34
225.57	-471.23
226.034	-227.55
226.497	-334.22
226.961	-247.08
227.425	-189.54
227.889	-215.14
228.353	-169.95
228.816	-430.69
229.28	-345.61
229.744	-307.16
230.207	-118.24
230.671	-97.41
231.134	-388.57
231.597	-364.6
232.061	-469.05
232.524	-448.29
232.987	-307.66
233.45	-246.31
233.914	-193.05
234.377	-270.65
234.84	-237.11
235.303	-337.24
235.766	-408.42
236.229	-373.96
236.691	-262.01
237.154	-290.07
237.617	-211.27
238.08	-221.14
238.542	-274.53
239.005	-179.08
239.468	-166.04
239.93	-144.4
240.393	-99.66
240.855	-75.2
241.317	-92.17
241.78	-123.18
242.242	-113.21
242.704	-103.57
243.166	-83.02
243.629	-36.93
244.091	-49.92
244.553	-41.39
245.015	-33.09
245.477	-65.29
245.939	-132.56
246.4	-121.16
246.862	-115.92
247.324	-127.62
247.786	-175.02
248.247	-296.32
248.709	-454.15
249.17	-339.85
249.632	-256.35
250.093	-253.18
250.555	-197.97
251.016	-76.02
251.477	-69.22
251.939	-62.68
252.4	-86.54
252.861	-121.87
253.322	-48.01
253.783	-100.27
254.244	-131.18
254.705	-132.18
255.166	-178.69
255.627	-205.05
256.088	-314.34
256.549	-341.34
257.009	-282.95
257.47	-317.28
257.931	-255.34
258.391	-196.89
258.852	-188.12
259.312	-195.89
259.773	-279.07
260.233	-166.43
260.694	-107.67
261.154	-117.61
261.614	-52.93
262.074	-55.6
262.534	-40.56
262.994	-31.13
263.455	-81.28
263.915	-28.97
264.374	-29.74
264.834	-23.98
265.294	-53.34
265.754	-63.12
266.214	-71.56
266.673	-69.56
267.133	-104.34
267.593	-124.86
268.052	-139.2
268.512	-119.33
268.971	-96.46
269.431	-78.28
269.89	-52
270.349	-79.48
270.809	-81.2
271.268	-32.17
271.727	-175.07
272.186	-97.66
272.645	-23.12
273.104	-88.87
273.563	-110.9
274.022	-178.92
274.481	-135.55
274.94	-103.65
275.399	-76.44
275.857	-100.18
276.316	-194.77
276.775	-176
277.233	-172.35
277.692	-159.79
278.15	-136.12
278.609	-105.03
279.067	-108.29
279.525	-76.13
279.984	-129.51
280.442	-188.55
280.9	-103.34
281.358	-39.98
281.816	-30.81
282.274	-24.43
282.732	-64
283.19	-85.45
283.648	-94.54
284.106	-87.95
284.564	-127.73
285.021	-94.84
285.479	-69.59
285.937	-117
286.394	-79.14
286.852	-92.36
287.309	-106.4
287.767	-67.93
288.224	-42.11
288.682	-53.86
289.139	-59.2
289.596	-48.44
290.053	-61.58
290.511	-91.06
290.968	-56.45
291.425	-162.29
291.882	-75.32
292.339	-31.58
292.796	-88.23
293.252	-106.91
293.709	-65.06
294.166	-51.5
294.623	-77.11
295.079	-90.63
295.536	-62.38
295.992	-57.01
296.449	-39.91
296.905	-42.2
297.362	-33.24
297.818	-28.64
298.274	-17.44
298.731	-21.39
299.187	-24.57
299.643	-30.59
300.099	-42.4
300.555	-80.3
301.011	-54.14
301.467	-3.05
301.923	-43.97
302.379	-49.01
302.835	-55.88
303.291	-58.32
303.746	-66.96
304.202	-113.6
304.658	-97.67
305.113	-49.37
305.569	-45.26
306.024	-97.68
306.479	-152.88
306.935	-97.09
307.39	-129.92
307.845	-122.13
308.301	-111.01
308.756	-137.64
309.211	-108.88
309.666	-127.82
310.121	-141.59
310.576	-149.76
311.031	-149.97
311.486	-219.32
311.94	-307.21
312.395	-447.88
312.85	-888.56
313.305	-5368.39
313.759	-22434.13
314.214	-1727.9
314.668	-1329.08
315.123	-1050.87
315.577	-332.11
316.032	-281.51
316.486	-334.06
316.94	-210.02
317.394	-109.08
317.849	-58.83
318.303	-62.58
318.757	-53.71
319.211	-64.19
319.665	-53.53
320.119	-59.65
320.572	-105.3
321.026	-90.18
321.48	-49.91
321.934	-62.54
322.387	-71.66
322.841	-65.51
323.295	4.51
323.748	-59.36
324.202	-52.41
324.655	-60.17
325.108	-17.4
325.562	-0.26
326.015	-37.04
326.468	-29.67
326.921	-38.71
327.374	-5.38
327.827	19.77
328.28	10.66
328.733	42.44
329.186	46.09
329.639	48.74
330.092	24.58
330.545	35.46
330.997	49.64
331.45	74.25
331.903	95.54
332.355	84.14
332.808	13.17
333.26	-2.28
333.713	3.56
334.165	-34.71
334.617	-88.68
335.069	-141.27
335.522	-419.91
335.974	-482.51
336.426	-600.96
336.878	-472.59
337.33	-197.59
337.782	-191.22
338.234	-230.33
338.686	-313.54
339.137	-368.39
339.589	-318.43
340.041	-208.07
340.493	-165.36
340.944	-168.54
341.396	-149.96
341.847	-89.39
342.299	-88.45
342.75	-69.56
343.201	-90.24
343.653	-103.48
344.104	-140.97
344.555	-112.23
345.006	-253.08
345.457	-59.9
345.908	-37.42
346.359	-11.59
346.81	-4.07
347.261	-24.91
347.712	-39.09
348.163	-76.83
348.613	-35.83
349.064	-11.4
349.515	-9.23
349.965	11.11
350.416	-34.71
350.866	-43.9
351.317	-103.73
351.767	-190.59
352.217	-282.98
352.668	-243.62
353.118	-184.41
353.568	-266.29
354.018	-203.79
354.468	-227.96
354.918	-128.04
355.368	-120.31
355.818	-194.94
356.268	-589.77
356.718	-2002.41
357.168	-396.42
357.617	-202.45
358.067	-261.44
358.517	-243.77
358.966	-257.16
359.416	-144.97
359.865	-203.3
360.315	-394.38
360.764	-154.16
361.213	-83.55
361.663	-161.36
362.112	-257.54
362.561	-451.65
363.01	-282.46
363.459	-247.84
363.908	-302.47
364.357	-272.52
364.806	-557.25
365.255	-356.78
365.703	-296.16
366.152	-282.51
366.601	-177.82
367.05	-93.65
367.498	-70.04
367.947	-97.46
368.395	-102.53
368.844	-78.8
369.292	-146.83
369.74	-69.84
370.189	-121.57
370.637	-187.78
371.085	-165.8
371.533	-219.29
371.981	-256.86
372.429	-192.4
372.877	-221.02
373.325	-162.28
373.773	-183.61
374.221	-156.95
374.669	-211.11
375.116	-201.54
375.564	-201.55
376.012	-224.28
376.459	-158.64
376.907	-198.82
377.354	-316.1
377.801	-239.13
378.249	-270.66
378.696	-360.74
379.143	-370.47
379.591	-424.07
380.038	-735.15
380.485	-482.48
380.932	-560.32
381.379	-475.37
381.826	-250.55
382.273	-173.42
382.72	-191.05
383.166	-190.25
383.613	-100.62
384.06	-93.37
384.506	-101.7
384.953	-52.41
385.4	-64.1
385.846	-64.29
386.292	-86.35
386.739	-106.86
387.185	-112.64
387.631	-110.25
388.078	-87.11
388.524	-100.72
388.97	-93.08
389.416	-70.61
389.862	-79.09
390.308	-68.28
390.754	-57.69
391.2	-60.15
391.645	-70.33
392.091	-31.3
392.537	-21.75
392.983	-43.46
393.428	-16.22
393.874	-28.8
394.319	-27.12
394.765	-1.15
395.21	-7.18
395.655	-4.09
396.101	0.13
396.546	13.27
396.991	-6.78
397.436	-5.89
397.881	-4.49
398.326	-23.9
398.771	-12.79
399.216	-13.92
399.661	-19.16
400.106	-14.34
400.551	-9.13
400.995	-7.88
401.44	-8.9
401.885	-6.81
402.329	-6.26
402.774	-1.94
403.218	15.03
403.663	16.56
404.107	18.52
404.551	20.29
404.995	17.5
405.44	12.34
405.884	9.17
406.328	3.54
406.772	4.15
407.216	4.97
407.66	2.41
408.104	-6.89
408.547	-10.18
408.991	-10.31
409.435	-10.98
409.879	-7.12
410.322	-5.2
410.766	-2.06
411.209	2.12
411.653	0.06
412.096	2.15
412.54	1.93
412.983	1.11
413.426	4.96
413.869	4.01
414.312	5.24
414.756	2.63
415.199	0.87
415.642	2.54
416.085	1.25
416.527	-0.29
416.97	-4.72
417.413	-3.33
417.856	-6.7
418.298	-7.66
418.741	-11.35
419.184	-14.65
419.626	-20.82
420.069	-20.82
420.511	-21.82
420.953	-17.74
421.396	-13.81
421.838	-13.65
422.28	-15.92
422.722	-11.68
423.164	-13.05
423.606	-9.67
424.048	-9.23
424.49	-3.15
424.932	-3.56
425.374	-4.87
425.816	-8.04
426.258	-9.29
426.699	-8.12
427.141	-2.64
427.582	-4.42
428.024	-7.38
428.465	-9.92
428.907	-10.01
429.348	-11.77
429.789	-10.77
430.231	-7.67
430.672	-6.58
431.113	-7.95
431.554	-8.79
431.995	-13.19
432.436	-9.88
432.877	-7.48
433.318	-3.11
433.759	-4.08
434.2	-3.26
434.64	-3.57
435.081	-3.89
435.522	-3.74
435.962	-2.29
436.403	-0.13
436.843	-2.41
437.284	-4.24
437.724	-7.54
438.164	-12.65
438.604	-9.92
439.045	-7.92
439.485	-4.28
439.925	-5.49
440.365	-7.49
440.805	-8.73
441.245	-7.56
441.685	-4.91
442.125	-6.39
442.564	-5.23
443.004	-2.76
443.444	-4.81
443.883	-5.46
444.323	-9.13
444.762	-12.93
445.202	-11.84
445.641	-10.4
446.081	-13.21
446.52	-13.35
446.959	-11.51
447.398	-8.35
447.837	-8.4
448.276	-7.68
448.716	-7.01
449.154	-8.17
449.593	-4.92
450.032	-4.13
450.471	-5.71
450.91	-5.88
451.349	-4.55
451.787	-5.25
452.226	-6.79
452.664	-7.35
453.103	-7.01
453.541	-8.85
453.98	-5.2
454.418	-5.6
454.856	-4.64
455.295	-4.08
455.733	-3.58
456.171	-3.81
456.609	-1.54
457.047	-0.71
457.485	2.21
457.923	3.58
458.361	2.34
458.798	1.41
459.236	2.6
459.674	1.45
460.111	2.04
460.549	2.93
460.987	1.29
461.424	-0.5
461.862	-1.09
462.299	-1.41
462.736	-1.28
463.173	0.1
463.611	2.59
464.048	2.56
464.485	2.33
464.922	1.86
465.359	0.67
465.796	8.4
466.233	9.36
466.67	10.47
467.106	11.12
467.543	9.48
467.98	8.62
468.416	6.14
468.853	4.08
469.29	4.31
469.726	3.25
470.162	2.95
470.599	-2.66
471.035	-4.16
471.471	-3.73
471.907	-6.26
472.344	-6.11
472.78	-5.92
473.216	-7.24
473.652	-6.36
474.088	-7.29
474.523	-5.88
474.959	-5.15
475.395	-5.31
475.831	-4.59
476.266	-5.62
476.702	-6.14
477.138	-5.3
477.573	-4.63
478.008	-3.98
478.444	-2.85
478.879	-0.91
479.314	-0.93
479.75	-1.16
480.185	-0.72
480.62	-0.92
481.055	-0.99
481.49	0.24
481.925	0.78
482.36	2.81
482.795	1.69
483.229	1.11
483.664	0.44
484.099	0.47
484.534	0.58
484.968	0.63
485.403	0.25
485.837	-0.26
486.271	-0.3
486.706	-1.01
487.14	-2.65
487.574	-1.15
488.009	-1.45
488.443	-1.9
488.877	-1.43
489.311	-1.55
489.745	-1.93
490.179	-1.04
490.613	1.17
491.046	0.68
491.48	0.62
491.914	1.1
492.348	1.08
492.781	1.05
493.215	1.39
493.648	0.38
494.082	0.35
494.515	0.76
494.948	1.1
495.382	-0.76
495.815	0.07
496.248	0.17
496.681	-0.24
497.114	-1.39
497.547	-0.8
497.98	0.09
498.413	2.05
498.846	2.54
499.279	1.95
499.711	1.28
500.144	1.31
500.577	1.7
501.009	1.32
501.442	1.64
501.874	2.68
502.306	2.25
502.739	4
503.171	3.02
503.603	3.07
504.036	2.91
504.468	3.68
504.9	3.19
505.332	2.36
505.764	2.65
506.196	2.43
506.627	2.57
507.059	2.58
507.491	-0.08
507.923	-0.17
508.354	-0.17
508.786	0.17
509.217	-0.13
509.649	0.69
510.08	0.3
510.512	1.19
510.943	1.56
511.374	1.78
511.805	1.6
512.237	1.18
512.668	0.7
513.099	0.16
513.53	-0.1
513.961	-0.01
514.391	-0.22
514.822	1.59
515.253	1.19
515.684	1.24
516.114	0.89
516.545	1.48
516.975	2.35
517.406	2.27
517.836	1.9
518.267	1.96
518.697	2.34
519.127	2.47
519.558	1.56
519.988	0.79
520.418	-0.21
520.848	-0.79
521.278	-1.27
521.708	18.45
522.138	18.99
522.567	18.7
522.997	18.87
523.427	18.41
523.857	18.42
524.286	18.39
524.716	18.96
525.145	19.56
525.575	20.17
526.004	19.61
526.433	0.28
526.863	0.14
527.292	1.71
527.721	2.4
528.15	1.71
528.579	2.5
529.008	2.09
529.437	1.17
529.866	1.16
530.295	0.55
530.724	1.71
531.152	1.81
531.581	2.97
532.01	2.07
532.438	0.94
532.867	0.94
533.295	0.83
533.723	1.24
534.152	2.1
534.58	2.63
535.008	2.96
535.436	3.36
535.865	2.67
536.293	0.68
536.721	0.19
537.149	0.85
537.576	1.44
538.004	1.09
538.432	0.71
538.86	1
539.287	0.04
539.715	0.22
540.143	-0.51
540.57	0.16
540.998	0.79
541.425	2.78
541.852	2.8
542.28	2.36
542.707	2.04
543.134	2.15
543.561	2.5
543.988	3.01
544.415	2.4
544.842	2.34
545.269	2.49
545.696	3.15
546.123	2.49
546.549	2.42
546.976	2.74
547.403	2.79
547.829	2.31
548.256	1.22
548.682	1.27
549.108	1.98
549.535	1.63
549.961	0.65
550.387	-0.08
550.813	0.55
551.24	0.46
551.666	0.08
552.092	-0.26
552.518	-0.19
552.943	0.8
553.369	0.2
553.795	0.3
554.221	0.41
554.646	0.83
555.072	2.17
555.498	0.94
555.923	0.34
556.349	0.09
556.774	0.15
557.199	-0.06
557.625	-0.99
558.05	-0.64
558.475	-1.15
558.9	-0.77
559.325	-0.38
559.75	-0.61
560.175	-0.67
560.6	-0.35
561.025	-0.43
561.449	-0.26
561.874	-0.29
562.299	0.19
562.723	-0.11
563.148	-0.11
563.572	-0.97
563.997	-0.89
564.421	-2.48
564.846	-2.8
565.27	-2.62
565.694	-2.37
566.118	-2.95
566.542	-1.9
566.966	-2.01
567.39	-1.83
567.814	-0.92
568.238	-0.32
568.662	-1.57
569.086	-1.02
569.509	-1.14
569.933	-0.25
570.357	-0.11
570.78	0.4
571.204	1.3
571.627	1.57
572.05	1.66
572.474	2.37
572.897	2.76
573.32	4.18
573.743	4.31
574.166	5.44
574.589	4.33
575.012	4.43
575.435	4.45
575.858	3.61
576.281	3.58
576.704	3.27
577.126	1.4
577.549	0.91
577.972	-0.11
578.394	-0.17
578.817	1.13
579.239	1.4
579.661	1.46
580.084	2.15
580.506	2.19
580.928	1.53
581.35	1.42
581.772	1.77
582.194	2.05
582.616	1.82
583.038	1.38
583.46	-0.07
583.882	0.43
584.303	-0.86
584.725	-1.89
585.147	1.35
585.568	2.24
585.99	3.23
586.411	3.63
586.833	4
587.254	4.68
587.675	4.63
588.096	3.9
588.518	3.08
588.939	4.46
589.36	5.37
589.781	1.15
590.202	3.17
590.623	2.68
591.043	2.08
591.464	2.03
591.885	2.13
592.305	1.99
592.726	1.84
593.147	2.11
593.567	1.93
593.987	1.3
594.408	1.09
594.828	-1.67
595.248	-1.14
595.669	-0.04
596.089	-0.5
596.509	-1.18
596.929	-1.88
597.349	-1.61
597.769	-1.52
598.189	-1.44
598.608	-1.54
599.028	-1.22
599.448	-1.73
599.867	-2.57
600.287	-3.35
600.706	-2.68
601.126	-1.72
601.545	-0.11
601.965	0.09
602.384	0
602.803	-0.35
603.222	0.07
603.641	-0.87
604.061	-0.11
604.48	0.4
604.898	0.55
605.317	-0.15
605.736	-0.9
606.155	-0.71
606.574	-0.73
606.992	-0.95
607.411	-0.62
607.829	-0.89
608.248	-0.29
608.666	-1.32
609.085	-1.18
609.503	-1.34
609.921	-0.76
610.339	-0.34
610.758	-1.5
611.176	-1.78
611.594	-1.14
612.012	-0.91
612.43	-0.45
612.847	-0.49
613.265	1.11
613.683	0.66
614.101	0.46
614.518	-0.36
614.936	-0.56
615.353	0.6
615.771	0.96
616.188	0.69
616.606	-0.39
617.023	-0.48
617.44	-0.32
617.857	-1.37
618.274	-1.48
618.691	-0.79
619.108	-0.86
619.525	-0.92
619.942	-1.29
620.359	-1.81
620.776	-1.7
621.192	-0.31
621.609	0.12
622.026	0.5
622.442	0.75
622.859	0.61
623.275	0.08
623.691	0.42
624.108	0.96
624.524	0.61
624.94	0.85
625.356	0.32
625.772	-0.74
626.188	-2.05
626.604	-1.99
627.02	-1.7
627.436	-1.08
627.852	0.35
628.268	-0.08
628.683	-0.56
629.099	-0.86
629.514	-0.68
629.93	-0.82
630.345	-0.41
630.761	-0.24
631.176	0.02
631.591	0.95
632.007	0.92
632.422	-0.77
632.837	-0.54
633.252	0.1
633.667	0.87
634.082	0.83
634.497	1.69
634.911	3.32
635.326	3.6
635.741	3.31
636.155	2.49
636.57	3.22
636.984	3.65
637.399	4.73
637.813	3.85
638.228	3.12
638.642	2.62
639.056	2.2
639.47	0.79
639.884	1.63
640.298	1.56
640.712	1.47
641.126	1.13
641.54	0.24
641.954	-1.81
642.368	-1.51
642.781	0.64
643.195	0.71
643.609	0.85
644.022	0.74
644.436	-1.09
644.849	-2.05
645.262	-2.26
645.676	-3.72
646.089	-2.84
646.502	-1.17
646.915	-2.45
647.328	-3.35
647.741	-2.86
648.154	-2.13
648.567	-0.31
648.98	0.69
649.393	0.86
649.805	0.35
650.218	0.62
650.631	1.01
651.043	0.6
651.456	1.79
651.868	1.91
652.28	1.36
652.693	-0.1
653.105	-1.77
653.517	-2.28
653.929	-1.62
654.341	-0.77
654.753	0.5
655.165	-0.59
655.577	-0.19
655.989	-0.41
656.401	-1.99
656.813	-0.69
657.224	-0.46
657.636	-1.51
658.047	0.15
658.459	0.32
658.87	-0.79
659.282	-1.71
659.693	-0.58
660.104	-0.65
660.515	-0.7
660.926	-1.3
661.338	-2.46
661.749	-3.03
662.159	-1.3
662.57	-2.71
662.981	-3.08
663.392	-2.89
663.803	-3.2
664.213	-3.54
664.624	-3.72
665.035	-4.04
665.445	-3.44
665.855	-2.84
666.266	-1.14
666.676	-2.32
667.086	-2.7
667.497	-2.34
667.907	-2.18
668.317	-1.83
668.727	0.52
669.137	-0.35
669.547	-0.7
669.956	-1.53
670.366	-2.11
670.776	-2.87
671.186	-2.36
671.595	-1.78
672.005	-2.95
672.414	-2.33
672.824	-1.88
673.233	-4.43
673.642	-4.55
674.052	-3.15
674.461	-1.66
674.87	-1.07
675.279	-0.21
675.688	-2.14
676.097	-1.35
676.506	-0.52
676.915	-1.97
677.323	-2.3
677.732	-2.61
678.141	-2.26
678.549	-3.16
678.958	-4.38
679.366	-5.48
679.775	-6.87
680.183	-4.18
680.592	-5.52
681	-5.86
681.408	-4.72
681.816	-5.16
682.224	-5.87
682.632	-4.64
683.04	-4.82
683.448	-4.58
683.856	-3.39
684.264	-2.38
684.671	-3.98
685.079	-3.78
685.487	-4.18
685.894	-4.87
686.302	-5.96
686.709	-5.09
687.116	-6.36
687.524	-5.36
687.931	-4.05
688.338	-4.55
688.745	-5.56
689.152	-5.06
689.559	-5.32
689.966	-4.24
690.373	-2.73
690.78	-0.02
691.187	0.12
691.593	1.71
692	1.3
692.407	0.84
692.813	4.01
693.22	5.03
693.626	3.41
694.032	4
694.439	4.08
694.845	3.11
695.251	1.06
695.657	1.73
696.063	-0.55
696.469	-0.33
696.875	-0.23
697.281	-3.38
697.687	-4.92
698.093	-3.6
698.498	-2.66
698.904	-3.11
699.31	-3.33
699.715	-0.12
700.12	-0.79
700.526	0.81
700.931	-0.02
701.337	0.07
701.742	2.09
702.147	3.2
702.552	3.59
702.957	2.21
703.362	1.55
703.767	1.48
704.172	-0.89
704.577	-1.6
704.981	-3.02
705.386	-1.84
705.791	-1.48
706.195	-3.8
706.6	-3.93
707.004	-6.33
707.408	-6.49
707.813	-4.47
708.217	-3.24
708.621	-3.03
709.025	-3.35
709.43	-1.8
709.834	-1.51
710.237	-1.57
710.641	-0.01
711.045	0.32
711.449	2.16
711.853	4.95
712.256	4.05
712.66	3.29
713.064	3.17
713.467	4.37
713.87	3.97
714.274	3.31
714.677	3.45
715.08	2.58
715.484	0.98
715.887	3.8
716.29	1.21
716.693	1.89
717.096	2.04
717.499	2.49
717.901	2.11
718.304	2.59
718.707	2.45
719.109	2.05
719.512	1.88
719.915	6.62
720.317	5.17
720.719	4.16
721.122	3.39
721.524	4.35
721.926	8.48
722.328	8.83
722.731	7.52
723.133	7.67
723.535	7.06
723.937	7.21
724.338	6
724.74	6.9
725.142	54.89
725.544	58.1
725.945	69.88
726.347	66.34
726.748	66.5
727.15	68.38
727.551	71.1
727.952	70.89
728.354	70.19
728.755	69.67
729.156	66.98
729.557	20.33
729.958	16.48
730.359	4.17
730.76	3.32
731.161	3.19
731.562	1.33
731.962	-1.56
732.363	-1.32
732.763	-0.95
733.164	-3.22
733.564	-2.2
733.965	-1.1
734.365	-0.97
734.766	-0.84
735.166	-0.96
735.566	0.3
735.966	1.42
736.366	1.06
736.766	1.13
737.166	0.68
737.566	0.71
737.966	0.1
738.365	0.97
738.765	2.21
739.165	2.43
739.564	2.04
739.964	-0.33
740.363	-1.56
740.763	-2.14
741.162	-1.13
741.561	-1.46
741.96	0.09
742.36	-0.12
742.759	-0.53
743.158	-2.09
743.557	-2.93
743.955	-3.54
744.354	-2.89
744.753	-3.21
745.152	-1.44
745.55	-3.47
745.949	-3.04
746.348	-3.35
746.746	-4.66
747.144	-2.67
747.543	-2.77
747.941	-3.1
748.339	-2.74
748.737	-2.12
749.136	-0.38
749.534	-2.09
749.932	0.36
750.33	0.18
750.727	-0.09
751.125	1.6
751.523	0.09
751.921	2.92
752.318	3.75
752.716	4.96
753.113	4.8
753.511	3.97
753.908	4.12
754.305	7.34
754.703	7.55
755.1	7.62
755.497	6.47
755.894	5.44
756.291	3.17
756.688	4.56
757.085	3.35
757.482	3.84
757.878	6.13
758.275	7.65
758.672	0.45
759.068	-2.2
759.465	-3.31
759.861	-2.93
760.258	-5.98
760.654	-9.21
761.05	-8.85
761.447	-9.91
761.843	-10.44
762.239	-10.61
762.635	-11.92
763.031	-12.29
763.427	-9.94
763.822	-8.77
764.218	-9.17
764.614	-7.14
765.01	-6.45
765.405	-8.11
765.801	-6.79
766.196	-7.06
766.592	-9.3
766.987	-7.61
767.382	-8.55
767.778	-7.74
768.173	-7.62
768.568	-7.43
768.963	-6.28
769.358	-6.28
769.753	-5.88
770.148	-4.83
770.542	-4.87
770.937	-5.39
771.332	-5.67
771.726	-5.75
772.121	-1.9
772.515	-3.07
772.91	-2.22
773.304	-1.83
773.699	-1.26
774.093	-1.98
774.487	-2.37
774.881	-1.8
775.275	0.1
775.669	-0.79
776.063	-0.24
776.457	-2.56
776.851	-1.28
777.245	-0.34
777.638	-0.63
778.032	-2.14
778.425	-0.56
778.819	2.52
779.212	4.6
779.606	6.47
779.999	7.01
780.392	8.5
780.786	5.64
781.179	5.21
781.572	4.97
781.965	3.82
782.358	4.64
782.751	3.91
783.143	0.77
783.536	-0.61
783.929	-4.55
784.322	-4.46
784.714	-6.65
785.107	-5.62
785.499	-4.44
785.891	-2.57
786.284	-1.54
786.676	-1.26
787.068	-0.3
787.46	1.46
787.852	1.04
788.245	2.99
788.636	0.58
789.028	3.83
789.42	5.47
789.812	6.78
790.204	4.67
790.595	6.36
790.987	7.07
791.378	8.07
791.77	5.33
792.161	3.31
792.553	4.85
792.944	8.45
793.335	5.03
793.726	4.86
794.117	4.45
794.508	1.88
794.899	-0.68
795.29	-1.75
795.681	-4.73
796.072	-3.68
796.463	16.33
796.853	18.32
797.244	16.41
797.634	17.57
798.025	17.66
798.415	14.1
798.806	18.45
799.196	20.28
799.586	23.97
799.976	25.64
800.366	24.52
800.756	3.75
801.146	1.94
801.536	1.33
801.926	1
802.316	0.98
802.706	3
803.095	0.98
803.485	0.24
803.874	-4.89
804.264	-7.42
804.653	-5.51
805.043	-2.7
805.432	-2.87
805.821	1.69
806.21	4.04
806.599	1.5
806.988	1.33
807.377	-2.18
807.766	-5.26
808.155	-4.42
808.544	-1.86
808.933	-1.8
809.321	1.76
809.71	-1.76
810.098	-3.57
810.487	-7.38
810.875	-8.1
811.264	-9.55
811.652	2.57
812.04	5.23
812.428	9.56
812.816	5.58
813.204	4.63
813.592	-3.82
813.98	-3.57
814.368	1.14
814.756	2.75
815.144	5.83
815.531	11.97
815.919	0.44
816.306	0.86
816.694	-3
817.081	1.62
817.469	1.95
817.856	0.26
818.243	-1.68
818.63	-10.47
819.017	-5.9
819.404	-5.9
819.791	-11.67
820.178	-15.85
820.565	-13.97
820.952	-7.02
821.339	-7.72
821.725	-4.26
822.112	3.62
822.498	6.03
822.885	3.27
823.271	-1.14
823.657	-6.3
824.044	-6.04
824.43	-5.68
824.816	1.24
825.202	-2.69
825.588	-4.17
825.974	-1.94
826.36	-4.49
826.746	-3.67
827.132	-2.33
827.517	1.63
827.903	1.91
828.289	6.02
828.674	9.13
829.06	1.98
829.445	0.62
829.83	-2.44
830.216	-7.17
830.601	-4.58
830.986	2.56
831.371	4.61
831.756	7.48
832.141	20.1
832.526	20.24
832.911	22.04
833.295	22.02
833.68	21.42
834.065	25.32
834.449	27.16
834.834	26.92
835.218	23.73
835.603	25.01
835.987	18.76
836.371	12.23
836.755	12.7
837.139	11.47
837.524	9.76
837.908	7.67
838.291	11.36
838.675	9.23
839.059	5.64
839.443	4.28
839.827	1.4
840.21	0.87
840.594	3.22
840.977	3.89
841.361	4.3
841.744	-0.26
842.127	3.44
842.511	-3.01
842.894	-6.53
843.277	-3.79
843.66	-7.03
844.043	-4.48
844.426	1.97
844.809	-2.84
845.191	-4.57
845.574	-4.41
845.957	0.32
846.339	0.75
846.722	5.11
847.104	5.31
847.487	-0.28
847.869	2.04
848.252	2.63
848.634	0.54
849.016	1.45
849.398	1.79
849.78	0.77
850.162	2.07
850.544	1.15
850.926	-3.07
851.307	-4.55
851.689	-2.47
852.071	-4.13
852.452	-4.68
852.834	-6.98
853.215	-5.22
853.597	-8.53
853.978	-4.38
854.359	-2.54
854.741	1.33
855.122	2.01
855.503	1.07
855.884	1
856.265	1.2
856.646	-7.6
857.026	-4.28
857.407	-3.98
857.788	-5.89
858.169	-13.97
858.549	-6.92
858.93	-10.57
859.31	-8.8
859.69	-1.26
860.071	1.44
860.451	1.63
860.831	7.25
861.211	0.76
861.591	-2.5
861.971	-1.63
862.351	0.96
862.731	-10.49
863.111	-10.71
863.491	-11.02
863.87	-15.97
864.25	-20.65
864.629	-10.88
865.009	-11.55
865.388	-7.72
865.768	-12.02
866.147	-8.68
866.526	-6.42
866.905	-1.07
867.284	-9.21
867.663	-11.86
868.042	-12.62
868.421	-12.24
868.8	-22.92
869.179	-15.9
869.558	-16.61
869.936	-9.4
870.315	-13.05
870.693	-9.48
871.072	-17.86
871.45	-14.68
871.828	-8.37
872.207	-6.05
872.585	0.59
872.963	-3.8
873.341	-2.65
873.719	3.92
874.097	2.17
874.475	1.31
874.853	-6.46
875.23	-2.63
875.608	0.69
875.986	-2.98
876.363	-1.86
876.741	3.17
877.118	14.41
877.495	16.48
877.873	15.75
878.25	15.27
878.627	18.36
879.004	23.53
879.381	19.55
879.758	20.01
880.135	19.84
880.512	16.7
880.889	5.57
881.265	-0.2
881.642	-8.7
882.019	-13.62
882.395	-2.41
882.772	4.87
883.148	9.26
883.524	15.98
883.901	15.3
884.277	12.59
884.653	9.97
885.029	17.09
885.405	27.68
885.781	30.37
886.157	27.62
886.532	19.89
886.908	13.17
887.284	7.76
887.659	6.12
888.035	5.11
888.411	5.28
888.786	12.54
889.161	3.96
889.537	-8.31
889.912	-9.99
890.287	-9.73
890.662	-17.5
891.037	-22.45
891.412	-21.64
891.787	-27.78
892.162	-21.84
892.536	-22.85
892.911	-18.84
893.286	-18.53
893.66	-12.39
894.035	-11.77
894.409	-15.62
894.784	-7.23
895.158	-7.74
895.532	-5.77
895.906	-2.18
896.281	-2.32
896.655	2.72
897.029	-5.52
897.402	-5.38
897.776	-12.31
898.15	-8.3
898.524	-6.15
898.898	-4.67
899.271	4
899.645	9.62
900.018	14.11
900.392	7.14
900.765	3.53
901.138	9.95
901.511	5.73
901.884	14.06
902.258	10.77
902.631	19.84
903.003	11.04
903.376	3.81
903.749	0.34
904.122	-6.4
904.495	-20.78
904.867	-32.36
905.24	-30.08
905.612	-28.37
905.985	-36.55
906.357	-43.93
906.729	-46.77
907.102	-32.02
907.474	-24.36
907.846	-23.25
908.218	-20.41
908.59	1.55
908.962	2.63
909.334	1.05
909.705	9.18
910.077	0.65
910.449	2.47
910.82	4.22
911.192	0.31
911.563	3.42
911.935	-4.29
912.306	-18.49
912.677	-26.02
913.048	-13.81
913.419	-21.82
913.79	-39.25
914.161	-46.57
914.532	-20.44
914.903	-22.37
915.274	-23.95
915.645	-25.93
916.015	-32.09
916.386	-23.2
916.756	-27.58
917.127	-48.59
917.497	-28.68
917.868	-17.98
918.238	-5.23
918.608	-23.67
918.978	-23.04
919.348	-39.17
919.718	-47.34
920.088	-34.41
920.458	-31.91
920.828	-47.53
921.198	-19.24
921.567	-28.87
921.937	-19.48
922.306	-30.79
922.676	-39.52
923.045	-9.81
923.415	11.55
923.784	17.8
924.153	27.2
924.522	34.88
924.891	35.31
925.26	24.86
925.629	9.68
925.998	-6.9
926.367	-0.03
926.736	28.75
927.104	5.91
927.473	-16.86
927.842	-37.53
928.21	-64.13
928.578	-92.18
928.947	-75.62
929.315	-60.91
929.683	-40.68
930.051	-28.77
930.42	-26.66
930.788	-52.45
931.156	-36.6
931.523	2.25
931.891	18.39
932.259	42.59
932.627	63.11
932.994	65.3
933.362	89.49
933.729	62.92
934.097	58.26
934.464	48.98
934.831	39.38
935.199	5.49
935.566	-6.59
935.933	41.46
936.3	34.01
936.667	34.36
937.034	126.52
937.401	97.75
937.767	101.05
938.134	101.76
938.501	128.37
938.867	152.21
939.234	259.35
939.6	207.02
939.967	110.03
940.333	108.28
940.699	63.6
941.065	-46.91
941.431	-58.63
941.798	-4.66
942.163	4.59
942.529	-16.02
942.895	-33.36
943.261	-20.7
943.627	-22.56
943.992	-9.71
944.358	-18.82
944.723	29.8
945.089	35
945.454	42.74
945.82	0.6
946.185	-14.89
946.55	16.99
946.915	19.54
947.28	38.08
947.645	24.34
948.01	39.65
948.375	48.84
948.74	16.35
949.104	1.65
949.469	-89.64
949.834	-134.49
950.198	-8.06
950.562	-20.02
950.927	8.79
951.291	-6.12
951.655	5.57
952.02	-55.09
952.384	-40
952.748	-5.64
953.112	33.06
953.476	37.98
953.839	33.61
954.203	52.52
954.567	53.1
954.931	44.07
955.294	66.39
955.658	50.87
956.021	123.98
956.385	94.07
956.748	20.25
957.111	-361.16
957.474	-455.92
957.837	-634.58
958.2	-822.79
958.563	-272.4
958.926	-139.67
959.289	-251.92
959.652	-204.02
960.015	-193.16
960.377	-337.57
960.74	-374.81
961.102	-765.29
961.465	-554.38
961.827	63.66
962.189	171.66
962.552	190.77
962.914	116.19
963.276	50.02
963.638	31.8
964	52.59
964.362	91.51
964.724	71.33
965.085	100.31
965.447	77.11
965.809	0.3
966.17	-27.28
966.532	-49.48
966.893	-49.22
967.255	-37.42
967.616	-72.29
967.977	-64.86
968.338	-70.06
968.699	-41.67
969.061	-49.31
969.421	-49.62
969.782	-56.22
970.143	-22.19
970.504	19.58
970.865	37.96
971.225	54.6
971.586	72.75
971.946	95.61
972.307	80.2
972.667	61.56
973.027	62.85
973.388	55
973.748	78.13
974.108	87.11
974.468	0.75
974.828	42.51
975.188	8.36
975.548	-0.28
975.907	15.31
976.267	3.35
976.627	38.58
976.986	27.17
977.346	16.53
977.705	5.41
978.064	2.47
978.424	6.89
978.783	-32.29
979.142	-38.35
979.501	-30.22
979.86	-30.97
980.219	-41.57
980.578	-97.49
980.937	-120.46
981.296	-90.33
981.654	-92.33
982.013	-190.68
982.371	-227.31
982.73	-173.5
983.088	-179.01
983.447	-197.74
983.805	-281.53
984.163	-608.97
984.521	-679.64
984.879	-1049.53
985.237	1661.13
985.595	-1088.36
985.953	-304.73
986.311	-190.08
986.669	-127.54
987.026	-117.12
987.384	-204.54
987.741	-251.97
988.099	-98.96
988.456	-62.4
988.814	-41.92
989.171	-48.88
989.528	-97.56
989.885	-90.25
990.242	-64.58
990.599	-122.89
990.956	-111.97
991.313	-70.89
991.67	-43.36
992.027	-15.23
992.383	-5.42
992.74	4.1
993.096	12.17
993.453	14.94
993.809	2.19
994.165	-1.95
994.522	70.75
994.878	83.82
995.234	96.75
995.59	77.73
995.946	-6.46
996.302	-28.34
996.658	-66.98
997.013	-93.3
997.369	-61.64
997.725	-19.97
998.08	-31.99
998.436	-236.5
998.791	-304.66
999.147	-263.65
999.502	-249.32
999.857	-151.22
1000.212	-206.15
1000.567	-335.32
1000.922	-155.89
1001.277	-113.7
1001.632	-98.01
1001.987	-115.4
1002.342	-58.93
1002.696	-23.68
1003.051	-11.05
1003.406	-21.3
1003.76	-21.77
1004.114	-22
1004.469	4.11
1004.823	1.12
1005.177	-37.68
1005.531	-26.88
1005.885	1.92
1006.239	-3.84
1006.593	-19.81
1006.947	-23.73
1007.301	-36.75
1007.655	-70.46
1008.008	-34.08
1008.362	-36.3
1008.715	-59.99
1009.069	-34.81
1009.422	20.84
1009.776	-118.56
1010.129	-81.55
1010.482	-101.18
1010.835	-132.33
1011.188	-253.01
1011.541	-198.47
1011.894	1915.11
1012.247	-5720.42
1012.6	-409.41
1012.952	-209.61
1013.305	-176.44
1013.657	-105.23
1014.01	-96.88
1014.362	-91.03
1014.715	-18.12
1015.067	0.86
1015.419	-6.57
1015.771	9.19
1016.123	17.04
1016.475	22.23
1016.827	14.27
1017.179	39.68
1017.531	40.92
1017.883	55.03
1018.234	111.42
1018.586	109.6
1018.938	135.57
1019.289	196.69
1019.64	192.23
1019.992	163.99
1020.343	133.9
1020.694	150.12
1021.045	121.08
1021.396	102.04
1021.747	104.81
1022.098	30.92
1022.449	1.59
1022.8	-13.14
1023.151	29.26
1023.501	35.75
1023.852	20.79
1024.202	41.16
1024.553	14.35
1024.903	36.54
1025.253	64.06
1025.604	67.41
1025.954	80.55
1026.304	80.38
1026.654	92.37
1027.004	45.87
1027.354	-32.82
1027.703	80.48
1028.053	-6.45
1028.403	125.48
1028.753	-190.57
1029.102	-786.38
1029.452	-7036.42
1029.801	-351.06
1030.15	-215.68
1030.499	-235.17
897.758	1686.5
901.051	1624.44
904.343	1656.09
907.636	1661.5
910.928	1709.37
914.22	1648.26
917.511	1652.85
920.803	1690.51
924.094	1679.65
927.384	1684.1
930.675	1654.94
933.965	1630.42
937.255	1660.09
940.544	1636.22
943.834	1628.32
947.123	1583.58
950.411	1652.17
953.7	1639.87
956.988	1630.08
960.276	1577.12
963.563	1607.62
966.851	1616.14
970.138	1644.78
973.424	1645.06
976.711	1604.6
979.997	1643.5
983.283	1673.4
986.568	1622.71
989.853	1609.69
993.138	1625.41
996.423	1697.68
999.708	1667.67
1002.992	1690.25
1006.275	1620.5
1009.559	1624.93
1012.842	1697.78
1016.125	1665.44
1019.408	1647.8
1022.69	1685.58
1025.972	1711.76
1029.254	1692.91
1032.536	1666.98
1035.817	1668.98
1039.098	1645.38
1042.379	1681.17
1045.659	1697.76
1048.939	1660.02
1052.219	1657.78
1055.498	1651.97
1058.778	1644.23
1062.057	1627.79
1065.335	1648.62
1068.614	1651.88
1071.892	1649.12
1075.17	1689.14
1078.447	1694.07
1081.724	1686.58
1085.001	1703.16
1088.278	1685.66
1091.554	1685.33
1094.83	1685.48
1098.106	1707.72
1101.382	1727.77
1104.657	1726.57
1107.932	1727.91
1111.206	1707.08
1114.481	1668.5
1117.755	1674.06
1121.029	1667.14
1124.302	1712.7
1127.575	1692.81
1130.848	1691.84
1134.121	1671.21
1137.393	1639.21
1140.665	1684.3
1143.937	1666.83
1147.208	1628.85
1150.48	1673.22
1153.75	1663.03
1157.021	1662.18
1160.291	1646.14
1163.561	1682.85
1166.831	1652.73
1170.101	1671.12
1173.37	1641.35
1176.639	1610.88
1179.907	1642.85
1183.176	1659.98
1186.444	1662.43
1189.711	1679.16
1192.979	1698.77
1196.246	1666.92
1199.513	1677.91
1202.78	1682.27
1206.046	1687.7
1209.312	1710.66
1212.578	1718.87
1215.843	1694.81
1219.108	1673.68
1222.373	1691.13
1225.638	1671.32
1228.902	1666.08
1232.166	1634.66
1235.43	1625.43
1238.693	1651.07
1241.956	1644.29
1245.219	1682.26
1248.482	1670.71
1251.744	1672.25
1255.006	1757.27
1258.268	1716.73
1261.529	1690.16
1264.79	1688.8
1268.051	1758.81
1271.312	1765.77
1274.572	1738.54
1277.832	1729.82
1281.092	1712.39
1284.351	1708.22
1287.61	1696.31
1290.869	1650.62
1294.128	1651.73
1297.386	1677.71
1300.644	1672.62
1303.902	1683
1307.159	1583.85
1310.416	1622.55
1313.673	1641.95
1316.93	1645.58
1320.186	1664.03
1323.442	1688.44
1326.697	1693.32
1329.953	1668.74
1333.208	1699.73
1336.463	1681.36
1339.717	1655.45
1342.972	1735.6
1346.226	1715.09
1349.479	1685.49
1352.733	1669.78
1355.986	1677.93
1359.238	1663.06
1362.491	1665.62
1365.743	1668.42
1368.995	1662.85
1372.247	1675.02
1375.498	1686.7
1378.749	1722.12
1382	1691.48
1385.251	1711.02
1388.501	1677.07
1391.751	1679.19
1395	1659.67
1398.25	1679.87
1401.499	1702.21
1404.748	1668.72
1407.996	1653.32
1411.244	1649.6
1414.492	1640
1417.74	1628.14
1420.987	1635.86
1424.234	1681.5
1427.481	1649.1
1430.728	1689.78
1433.974	1673.32
1437.22	1670.7
1440.465	1664.78
1443.711	1670.71
1446.956	1685.25
1450.201	1662.97
1453.445	1693.23
1456.689	1683.89
1459.933	1691.74
1463.177	1722.68
1466.42	1704.72
1469.663	1688.42
1472.906	1701.94
1476.148	1736.89
1479.391	1702.45
1482.633	1687.22
1485.874	1706.25
1489.115	1712.57
1492.356	1697.01
1495.597	1679.4
1498.838	1671.51
1502.078	1661.08
1505.318	1645.38
1508.557	1666.85
1511.797	1664.11
1515.036	1705.83
1518.274	1674.89
1521.513	1631.41
1524.751	1636.37
1527.989	1653.81
1531.227	1669.23
1534.464	1677.07
1537.701	1667.84
1540.938	1673.25
1544.174	1632.4
1547.41	1622.07
1550.646	1647.55
1553.882	1683
1557.117	1728.55
1560.352	1732.54
1563.587	1703.44
1566.821	1679.56
1570.055	1689.58
1573.289	1671.84
1576.523	1711.05
1579.756	1722.4
1582.989	1737.47
1586.222	1705.51
1589.454	1731.28
1592.686	1719.52
1595.918	1741.1
1599.15	1737.15
1602.381	1768.88
1605.612	1759.06
1608.843	1827.41
1612.073	1769.28
1615.303	1762.58
1618.533	1759.71
1621.762	1759.08
1624.992	1734.73
1628.221	1736.17
1631.449	1725.49
1634.678	1743.39
1637.906	1716.78
1641.134	1734.54
1644.361	1709.62
1647.588	1703.61
1650.815	1720.57
1654.042	1690.09
1657.269	1710.95
1660.495	1699.52
1663.72	1685.16
1666.946	1661.1
1670.171	1649.24
1673.396	1627.81
1676.621	1615.05
1679.845	1610.37
1683.069	1611.87
1686.293	1631.37
1689.517	1630.43
1692.74	1598.29
1695.963	1612.68
1699.185	1645.11
1702.408	1629.25
1705.63	1646.23
1708.852	1662.18
1712.073	1636.72
1715.294	1651.54
1718.515	1686.41
1721.736	1656.37
1724.956	1641.98
1728.176	1658.22
1731.396	1672.01
1734.616	1665.4
1737.835	1696.33
1741.054	1672.57
1744.272	1668.37
1747.491	1704.45
1750.709	1716.4
1753.927	1684.83
1757.144	1703.45
1760.361	1746.8
1763.578	1723.23
1766.795	1688.84
1770.011	1677.15
1773.227	1691.91
1776.443	1726.58
1779.658	1756.67
1782.874	1713.54
1786.089	1710.88
1789.303	1712.95
1792.518	1708.15
1795.732	1701.96
1798.945	1716.32
1802.159	1748.52
1805.372	1711.48
1808.585	1708.66
1811.797	1708.62
1815.01	1723.97
1818.222	1746.56
1821.434	1710.65
1824.645	1739.89
1827.856	1752.22
1831.067	1771.52
1834.278	1725.77
1837.488	1712.47
1840.698	1799.8
1843.908	1763.8
1847.117	1744.18
1850.326	1694.48
1853.535	1733.07
1856.744	1769.06
1859.952	1711.91
1863.16	1714.57
1866.368	1731.24
1869.575	1818.13
1872.782	1732.5
1875.989	1686.47
1879.196	1719.89
1882.402	1714.99
1885.608	1740.44
1888.814	1704.91
1892.019	1639.5
1895.224	1683.1
1898.429	1655.84
1901.634	1642.9
1904.838	1627.7
1908.042	1674.15
1911.246	1686.67
1914.449	1662.58
1917.652	1645.56
1920.855	1632.54
1924.058	1649.21
1927.26	1686.33
1930.462	1702.07
1933.664	1733.8
1936.865	1692.26
1940.066	1704.66
1943.267	1661.51
1946.467	1669.96
1949.668	1680.23
1952.868	1738.17
1956.067	1734.26
1959.267	1684.34
1962.466	1702.89
1965.665	1687.8
1968.863	1685.21
1972.061	1684.2
1975.259	1679.58
1978.457	1737.71
1981.654	1703.93
1984.852	1707.33
1988.048	1674.63
1991.245	1661.62
1994.441	1734.42
1997.637	1693.29
2000.833	1677.43
2004.028	1704.67
2007.223	1756.17
2010.418	1745.26
2013.613	1705.85
2016.807	1706.65
2020.001	1699.72
2023.194	1712.65
2026.388	1701.22
2029.581	1657.3
2032.774	1708.76
2035.966	1720.42
2039.158	1679.9
2042.35	1693.63
2045.542	1635.26
2048.733	1696.71
2051.924	1682.37
2055.115	1694.4
2058.306	1672.21
2061.496	1711.9
2064.686	1748.16
2067.875	1673.52
2071.065	1671.95
2074.254	1683.9
2077.442	1648
2080.631	1712.77
2083.819	1666.97
2087.007	1663.71
2090.195	1654.09
2093.382	1659.09
2096.569	1651.01
2099.756	1623.1
2102.942	1667.33
2106.128	1677.64
2109.314	1670.19
2112.5	1663.49
2115.685	1634.42
2118.87	1640.57
2122.055	1690.23
2125.239	1675
2128.424	1670.16
2131.608	1706.02
2134.791	1690.99
2137.974	1717.42
2141.157	1709.9
2144.34	1692.19
2147.523	1677.86
2150.705	1704.39
2153.887	1675.55
2157.068	1658.02
2160.25	1635.71
2163.431	1651.92
2166.611	1632.91
2169.792	1652.61
2172.972	1583.01
2176.152	1620.96
2179.331	1637.84
2182.511	1644.9
2185.69	1658.98
2188.868	1663.48
2192.047	1687.33
2195.225	1712.09
2198.403	1668.88
2201.58	1655.95
2204.758	1641.49
2207.935	1700.2
2211.111	1639.54
2214.288	1632.49
2217.464	1656.69
2220.64	1620.27
2223.815	1657.35
2226.991	1605.17
2230.166	1614.68
2233.34	1652.72
2236.515	1663.07
2239.689	1712.3
2242.863	1674.25
2246.036	1713.5
2249.209	1699.78
2252.382	1712.4
2255.555	1722.87
2258.727	1690.25
2261.9	1709.6
2265.071	1704.12
2268.243	1702.47
2271.414	1666.87
2274.585	1657.87
2277.756	1703.08
2280.926	1670.04
2284.096	1690.71
2287.266	1641.31
2290.436	1678.03
2293.605	1687.42
2296.774	1722.03
2299.942	1724.94
2303.111	1735.2
2306.279	1775.34
2309.447	1764.53
2312.614	1745.25
2315.781	1764.22
2318.948	1746.64
2322.115	1775.46
2325.281	1691.93
2328.447	1699.53
2331.613	1673.14
2334.779	1669.3
2337.944	1664.88
2341.109	1666.97
2344.274	1659.1
2347.438	1632.91
2350.602	1648.58
2353.766	1655.54
2356.929	1648.66
2360.092	1680.81
2363.255	1657.82
2366.418	1641.18
2369.58	1673.18
2372.742	1636.86
2375.904	1618.47
2379.066	1612.74
2382.227	1631.17
2385.388	1601.53
2388.548	1566.65
2391.709	1593.95
2394.869	1589.23
2398.029	1622.07
2401.188	1610.86
2404.347	1596.17
2407.506	1603.13
2410.665	1648.63
2413.823	1630.94
2416.981	1618.57
2420.139	1629.37
2423.296	1660.2
2426.453	1641.19
2429.61	1656.9
2432.767	1642.3
2435.923	1675.17
2439.079	1627.84
2442.235	1654.23
2445.391	1607.85
2448.546	1644.83
2451.701	1668.39
2454.855	1668.6
2458.009	1686.59
2461.163	1672.68
2464.317	1653.1
2467.471	1672.97
2470.624	1694.15
2473.777	1695.2
2476.929	1707.08
2480.082	1724.79
2483.234	1708.79
2486.385	1661.15
2489.537	1657.17
2492.688	1653.14
2495.839	1670.68
2498.989	1681.54
2502.14	1671.82
2505.29	1666.74
2508.439	1680.11
2511.589	1638.55
2514.738	1636.57
2517.887	1650.13
2521.035	1713.48
2524.183	1674.05
2527.331	1667.83
2530.479	1662.83
2533.627	1664.62
