Data from N_1_DEC_CT_2N_Splice17_11-34-28-078.txt Node
Date: Sat Mar 14 11:34:28 EDT 2020
User: sa697716
Spectrometer: FLMS03696
Trigger mode: 0
Integration Time (sec): 3.180400E-1
Scans to average: 20
Electric dark correction enabled: true
Nonlinearity correction enabled: true
Boxcar width: 5
XAxis mode: Wavelengths
Number of Pixels in Spectrum: 2048
>>>>>Begin Spectral Data<<<<<
187.83	-176544.53
188.298	1388.9
188.766	787.92
189.233	739.4
189.701	1083.15
190.169	1510.71
190.636	540.53
191.104	476.43
191.571	95.56
192.039	-17.6
192.506	15.16
192.974	381.63
193.441	-522.16
193.908	-123.6
194.375	33.13
194.842	136.63
195.31	209.47
195.777	161.25
196.244	279.82
196.711	160.73
197.177	117.59
197.644	75.56
198.111	88.21
198.578	96.53
199.045	37.18
199.511	-29.18
199.978	-116.38
200.445	-60.29
200.911	-94.38
201.378	-180.12
201.844	-130.61
202.31	-238.14
202.777	-204.25
203.243	-98.32
203.709	-108.39
204.176	-87.78
204.642	-56.91
205.108	-29.12
205.574	-40.93
206.04	-60.74
206.506	-41.57
206.972	-56.99
207.438	-57.41
207.903	-83.72
208.369	-48.15
208.835	-22.49
209.301	-29.64
209.766	-28.89
210.232	-22.04
210.697	-39.92
211.163	-64.61
211.628	-170.43
212.094	-104.55
212.559	-72.37
213.024	-31.8
213.49	-29.3
213.955	-51.1
214.42	-82.51
214.885	-70.51
215.35	-51.84
215.815	45.89
216.28	61.96
216.745	54.51
217.21	72.78
217.675	40.19
218.14	52.27
218.604	18.75
219.069	33.89
219.534	77.43
219.998	51.85
220.463	30.77
220.927	-70.44
221.392	-52.44
221.856	-26.7
222.32	-88.45
222.785	-102.02
223.249	-128.19
223.713	-111.75
224.177	-133.12
224.642	-241.68
225.106	-280.99
225.57	-257.6
226.034	-103.98
226.497	-196.23
226.961	-135.37
227.425	-113.11
227.889	-145.8
228.353	-163.72
228.816	-354.95
229.28	-292.79
229.744	-226.96
230.207	-44.15
230.671	-50.41
231.134	-287.62
231.597	-283.17
232.061	-366.55
232.524	-423.24
232.987	-235.2
233.45	-195.03
233.914	-193.12
234.377	-228.93
234.84	-200.86
235.303	-282.28
235.766	-325.76
236.229	-287.87
236.691	-192.01
237.154	-237.89
237.617	-140.41
238.08	-164.47
238.542	-204.06
239.005	-127.97
239.468	-113.31
239.93	-97.1
240.393	-77.07
240.855	-70.7
241.317	-83.78
241.78	-127.58
242.242	-112.3
242.704	-97.54
243.166	-74.3
243.629	-40.96
244.091	-53.54
244.553	-71.45
245.015	-80.49
245.477	-138.11
245.939	-227.39
246.4	-210.48
246.862	-192.05
247.324	-181.55
247.786	-277.06
248.247	-428.24
248.709	-537.91
249.17	-346.16
249.632	-236.5
250.093	-236.38
250.555	-180.53
251.016	-59.72
251.477	-59.73
251.939	-44.82
252.4	-63.05
252.861	-75.98
253.322	-28.62
253.783	-70.18
254.244	-174.82
254.705	-165.84
255.166	-185.13
255.627	-170.02
256.088	-221.34
256.549	-238.6
257.009	-217.6
257.47	-263.35
257.931	-232.93
258.391	-170.34
258.852	-154.22
259.312	-133.79
259.773	-187.58
260.233	-114.3
260.694	-78.71
261.154	-133.25
261.614	-47.36
262.074	-36.5
262.534	-35.88
262.994	-2.18
263.455	-28.06
263.915	2.7
264.374	-12.1
264.834	-13.03
265.294	-33.13
265.754	-25.72
266.214	-20.15
266.673	-24.65
267.133	-61.05
267.593	-57.23
268.052	-77.64
268.512	-68.39
268.971	-38.03
269.431	-24.05
269.89	-31.2
270.349	-16.42
270.809	-34.62
271.268	-53
271.727	-360.86
272.186	-140.9
272.645	-106.38
273.104	-124.22
273.563	-206.99
274.022	-248.66
274.481	-153.29
274.94	-100.28
275.399	-82.08
275.857	-122.02
276.316	-174.4
276.775	-156.35
277.233	-174.44
277.692	-140.31
278.15	-126.02
278.609	-69.83
279.067	-73.21
279.525	-77.93
279.984	-127.47
280.442	-155.42
280.9	-81.54
281.358	-30.84
281.816	-9.28
282.274	-6.75
282.732	-62.63
283.19	-93.96
283.648	-102.12
284.106	-113.07
284.564	-143.62
285.021	-119.91
285.479	-101.96
285.937	-121.66
286.394	-106.93
286.852	-117
287.309	-125.58
287.767	-78.28
288.224	-52.5
288.682	-67.41
289.139	-41.13
289.596	-15.41
290.053	-18.13
290.511	-35.36
290.968	-18.38
291.425	-38.17
291.882	21.31
292.339	44.26
292.796	25.19
293.252	-9.96
293.709	18.63
294.166	-8.7
294.623	-33.86
295.079	-50.73
295.536	-25.9
295.992	-24.33
296.449	-11.97
296.905	-19.02
297.362	-2.86
297.818	-33.49
298.274	-17.32
298.731	-40.05
299.187	-38.41
299.643	-34.92
300.099	-40.28
300.555	-51.21
301.011	-33.54
301.467	10.04
301.923	-18.58
302.379	-28.55
302.835	-9.59
303.291	1.54
303.746	-8.1
304.202	-14.85
304.658	-30.82
305.113	-2.9
305.569	-2.39
306.024	-48.19
306.479	-121.38
306.935	-76.4
307.39	-102.59
307.845	-89.13
308.301	-81.81
308.756	-86.79
309.211	-70.6
309.666	-66.93
310.121	-67.88
310.576	-101.45
311.031	-82.51
311.486	-107.06
311.94	-181.9
312.395	-270.32
312.85	-503.98
313.305	-3560.24
313.759	-12391.75
314.214	-869.89
314.668	-691
315.123	-463.32
315.577	-110.66
316.032	-124.49
316.486	-143.91
316.94	-71.9
317.394	-31.61
317.849	-19.52
318.303	-14.18
318.757	-14.91
319.211	-33.65
319.665	-27.15
320.119	-39.22
320.572	-86.82
321.026	-43.63
321.48	-42.2
321.934	-58.31
322.387	-66.09
322.841	-57.06
323.295	10.76
323.748	-41.54
324.202	-22.57
324.655	-20.19
325.108	26.63
325.562	43.9
326.015	25.84
326.468	44.7
326.921	54.48
327.374	78.1
327.827	95.43
328.28	57.89
328.733	54.55
329.186	38.47
329.639	22.51
330.092	-1.46
330.545	4.45
330.997	15.41
331.45	36.08
331.903	64.37
332.355	32.93
332.808	-13
333.26	-3.48
333.713	23.28
334.165	15.01
334.617	5.67
335.069	-75.42
335.522	-256.47
335.974	-321.63
336.426	-432.85
336.878	-403.55
337.33	-157.51
337.782	-165.17
338.234	-185.77
338.686	-255.52
339.137	-295.45
339.589	-279.34
340.041	-176.93
340.493	-148.82
340.944	-168.35
341.396	-139.85
341.847	-73.38
342.299	-72.93
342.75	-41.27
343.201	-74.26
343.653	-97.87
344.104	-131.7
344.555	-111.99
345.006	-229.34
345.457	-79.72
345.908	-63.02
346.359	-52.33
346.81	-37.14
347.261	-74.8
347.712	-94.09
348.163	-160.02
348.613	-101.7
349.064	-100.82
349.515	-60.88
349.965	-32.65
350.416	-73.68
350.866	-84.52
351.317	-139.58
351.767	-238.94
352.217	-297.94
352.668	-224.55
353.118	-136.51
353.568	-251.11
354.018	-127.5
354.468	-172.18
354.918	-121.5
355.368	-98.95
355.818	-140.76
356.268	-374.05
356.718	-1076.86
357.168	-224.71
357.617	-145.55
358.067	-172.23
358.517	-106.08
358.966	-119.89
359.416	-7.95
359.865	-37.33
360.315	-159.43
360.764	-58.58
361.213	-50.69
361.663	-113.3
362.112	-159.91
362.561	-301.04
363.01	-208.93
363.459	-189.33
363.908	-236.71
364.357	-175.3
364.806	-395.93
365.255	-263.49
365.703	-196.93
366.152	-186.65
366.601	-105.79
367.05	-75.1
367.498	-42.13
367.947	-55.96
368.395	-76.22
368.844	-49.85
369.292	-97.48
369.74	-29.08
370.189	-78.63
370.637	-134.84
371.085	-110.94
371.533	-187.9
371.981	-204.46
372.429	-161.66
372.877	-160.22
373.325	-124.63
373.773	-157.36
374.221	-172
374.669	-230.59
375.116	-172.17
375.564	-168.01
376.012	-185.41
376.459	-106.62
376.907	-104.72
377.354	-194.71
377.801	-145.65
378.249	-145.78
378.696	-216.25
379.143	-186.59
379.591	-244.58
380.038	-508.05
380.485	-296.5
380.932	-331.74
381.379	-256.74
381.826	-113.69
382.273	-52.15
382.72	-83.12
383.166	-80.42
383.613	-36.81
384.06	-52.71
384.506	-41.3
384.953	-5.52
385.4	-29.25
385.846	-28.86
386.292	-50.39
386.739	-76.52
387.185	-86.69
387.631	-84.38
388.078	-66
388.524	-67.42
388.97	-55.17
389.416	-37.69
389.862	-36.16
390.308	-34.28
390.754	-23.83
391.2	-26.33
391.645	-29.82
392.091	7.18
392.537	14.97
392.983	-1.91
393.428	25.01
393.874	21.7
394.319	32.86
394.765	38.7
395.21	41.6
395.655	33.91
396.101	31.76
396.546	35.42
396.991	14.92
397.436	10.69
397.881	13.14
398.326	-13.5
398.771	-5.26
399.216	-14.86
399.661	-15.28
400.106	-13.98
400.551	-6.51
400.995	-5.92
401.44	-8.81
401.885	-9.67
402.329	-8.79
402.774	-6.75
403.218	11.3
403.663	7.79
404.107	12.24
404.551	15.87
404.995	13.67
405.44	3.68
405.884	2.4
406.328	-2.01
406.772	-3.33
407.216	-1.51
407.66	-6.04
408.104	-15.52
408.547	-13.27
408.991	-11.79
409.435	-16.26
409.879	-11.21
410.322	-8.05
410.766	-4.34
411.209	0.28
411.653	1.38
412.096	5.04
412.54	4.26
412.983	2.73
413.426	5.17
413.869	0.23
414.312	6.51
414.756	3.09
415.199	2.05
415.642	2.77
416.085	4.21
416.527	3.14
416.97	-3.4
417.413	-1.01
417.856	-0.67
418.298	-3.43
418.741	-4.64
419.184	-10
419.626	-14.41
420.069	-14.33
420.511	-15.6
420.953	-14.08
421.396	-13.32
421.838	-12.33
422.28	-11.66
422.722	-11.02
423.164	-12.3
423.606	-11.89
424.048	-12.62
424.49	-9.31
424.932	-10.44
425.374	-11.74
425.816	-13.25
426.258	-14.33
426.699	-12.66
427.141	-9.73
427.582	-11.06
428.024	-10.59
428.465	-12.1
428.907	-10.77
429.348	-11.11
429.789	-8.26
430.231	-5.64
430.672	-6.82
431.113	-5.51
431.554	-6.18
431.995	-9.15
432.436	-5.64
432.877	-3.3
433.318	1.48
433.759	-0.31
434.2	0.75
434.64	0.16
435.081	0.61
435.522	1.48
435.962	0.12
436.403	1.85
436.843	-0.71
437.284	-2.35
437.724	-5.16
438.164	-9.92
438.604	-9.22
439.045	-8.07
439.485	-5.46
439.925	-6.31
440.365	-7.05
440.805	-6.34
441.245	-4.41
441.685	-1.57
442.125	-2.73
442.564	-3.61
443.004	-1.03
443.444	-1.92
443.883	-1.59
444.323	-4.85
444.762	-7.76
445.202	-9.15
445.641	-7.1
446.081	-11.33
446.52	-12.97
446.959	-12.04
447.398	-9.57
447.837	-9.17
448.276	-8.74
448.716	-8.17
449.154	-10.74
449.593	-8.65
450.032	-8.33
450.471	-10.18
450.91	-10.31
451.349	-7.17
451.787	-8.27
452.226	-9.28
452.664	-9.78
453.103	-9.48
453.541	-11.5
453.98	-7.64
454.418	-7.98
454.856	-5.15
455.295	-5.11
455.733	-2.81
456.171	-4.62
456.609	-2.55
457.047	-1.07
457.485	0.09
457.923	1.9
458.361	1.51
458.798	0.63
459.236	0.76
459.674	-0.48
460.111	-0.34
460.549	-0.67
460.987	-2.27
461.424	-2.99
461.862	-3.09
462.299	-2.54
462.736	-1.76
463.173	-1.19
463.611	1.84
464.048	2.99
464.485	3.37
464.922	3.2
465.359	2.56
465.796	11.24
466.233	12.33
466.67	13.87
467.106	15.45
467.543	13.09
467.98	13.08
468.416	10.6
468.853	9.52
469.29	8.95
469.726	8.85
470.162	9.24
470.599	3.1
471.035	2.01
471.471	1.14
471.907	-1.31
472.344	-0.82
472.78	-1.17
473.216	-1.35
473.652	-1.13
474.088	-2.2
474.523	-1.69
474.959	-2.86
475.395	-2.71
475.831	-2.77
476.266	-3.32
476.702	-3.44
477.138	-2.92
477.573	-2.76
478.008	-2.45
478.444	-2.08
478.879	-0.69
479.314	-0.81
479.75	-0.48
480.185	-1.47
480.62	-1.89
481.055	-1.83
481.49	-1.71
481.925	-1.65
482.36	0.14
482.795	-0.5
483.229	-1.05
483.664	-1.03
484.099	-0.6
484.534	-0.13
484.968	0.59
485.403	0.85
485.837	-0.07
486.271	0.2
486.706	-0.64
487.14	-2.25
487.574	-1.91
488.009	-1.9
488.443	-2.68
488.877	-2.24
489.311	-3.02
489.745	-2.96
490.179	-2.72
490.613	-0.45
491.046	-0.91
491.48	-0.6
491.914	-0.06
492.348	-0.33
492.781	-0.25
493.215	0.7
493.648	-0.78
494.082	-0.54
494.515	0.07
494.948	0.66
495.382	-0.95
495.815	-0.53
496.248	0.16
496.681	0.06
497.114	-0.07
497.547	0.25
497.98	0.15
498.413	2.25
498.846	2.96
499.279	2.1
499.711	1.65
500.144	1.46
500.577	2.14
501.009	1.13
501.442	2.24
501.874	2.98
502.306	2.99
502.739	5.48
503.171	4.78
503.603	4.71
504.036	4.61
504.468	4.66
504.9	4.79
505.332	4.52
505.764	5.4
506.196	4.35
506.627	4.26
507.059	4.12
507.491	1.15
507.923	1.34
508.354	1.29
508.786	1.28
509.217	0.99
509.649	1.08
510.08	0.61
510.512	0.82
510.943	1.01
511.374	0.62
511.805	0.34
512.237	0.16
512.668	-1.28
513.099	-2.2
513.53	-2.3
513.961	-1.88
514.391	-2.18
514.822	-0.73
515.253	-0.39
515.684	-0.24
516.114	-0.19
516.545	0.2
516.975	0.27
517.406	0.54
517.836	0.53
518.267	0.96
518.697	1.27
519.127	1.13
519.558	-0.47
519.988	-1.57
520.418	-2.34
520.848	-3.13
521.278	-3.9
521.708	24.57
522.138	25.93
522.567	25.61
522.997	25.48
523.427	25.05
523.857	25.19
524.286	25.35
524.716	25.84
525.145	26.74
525.575	27.82
526.004	27.65
526.433	-0.18
526.863	-1.05
527.292	0.14
527.721	0.74
528.15	0.32
528.579	0.6
529.008	0.46
529.437	-0.49
529.866	-0.93
530.295	-1.77
530.724	-0.76
531.152	-0.91
531.581	-0.33
532.01	-0.18
532.438	-0.94
532.867	-1
533.295	-0.65
533.723	-0.21
534.152	0.22
534.58	0.71
535.008	1.06
535.436	2.04
535.865	2.13
536.293	1.09
536.721	0.18
537.149	0.74
537.576	1.68
538.004	1.71
538.432	0.67
538.86	0.87
539.287	0.01
539.715	0.15
540.143	-0.92
540.57	-0.76
540.998	-0.27
541.425	1.92
541.852	1.33
542.28	0.96
542.707	0.42
543.134	0.79
543.561	0.92
543.988	1.32
544.415	1
544.842	0.13
545.269	0.2
545.696	-0.05
546.123	-0.86
546.549	-0.57
546.976	-0.77
547.403	-0.84
547.829	-1.29
548.256	-1.77
548.682	-1.83
549.108	-0.82
549.535	-0.19
549.961	-0.94
550.387	-0.98
550.813	-0.5
551.24	-0.65
551.666	-1.3
552.092	-1.38
552.518	-1.49
552.943	-0.71
553.369	-1.12
553.795	-1.31
554.221	-1.23
554.646	-0.8
555.072	-0.07
555.498	-1.53
555.923	-1.81
556.349	-1.6
556.774	-1.89
557.199	-1.26
557.625	-2.18
558.05	-1.4
558.475	-1.84
558.9	-2.25
559.325	-1.67
559.75	-2.03
560.175	-1.78
560.6	-1.54
561.025	-1.64
561.449	-1
561.874	-1.35
562.299	-0.45
562.723	-1.21
563.148	-1.29
563.572	-1.05
563.997	-1.22
564.421	-1.89
564.846	-2.21
565.27	-2.26
565.694	-1.93
566.118	-2.1
566.542	-1.18
566.966	-1.49
567.39	-1.39
567.814	-1.17
568.238	-0.97
568.662	-1.52
569.086	-1.07
569.509	-1.49
569.933	-0.31
570.357	-0.61
570.78	-0.48
571.204	0.45
571.627	0.31
572.05	0.24
572.474	1.04
572.897	1.47
573.32	2.24
573.743	1.88
574.166	3.13
574.589	2.06
575.012	2.36
575.435	2.17
575.858	1.4
576.281	1.4
576.704	1.41
577.126	-0.05
577.549	-0.84
577.972	-1.97
578.394	-1.38
578.817	0.23
579.239	-0.08
579.661	-0.03
580.084	0.83
580.506	0.63
580.928	0.41
581.35	0.73
581.772	1.59
582.194	1.5
582.616	1.4
583.038	0.32
583.46	-2.36
583.882	-2
584.303	-3.12
584.725	-4.24
585.147	-0.27
585.568	0.07
585.99	0.57
586.411	0.62
586.833	1.54
587.254	2.3
587.675	2.47
588.096	3.12
588.518	2.78
588.939	3.65
589.36	4.29
589.781	-0.77
590.202	1.87
590.623	1.65
591.043	1
591.464	0.37
591.885	0.79
592.305	0.68
592.726	0.13
593.147	0.11
593.567	0.97
593.987	0.64
594.408	0.8
594.828	-2.34
595.248	-2.18
595.669	-1.09
596.089	-0.79
596.509	-1.74
596.929	-1.58
597.349	-0.98
597.769	-0.71
598.189	-1.26
598.608	-1.03
599.028	-1.11
599.448	-1.09
599.867	-1.33
600.287	-2.6
600.706	-2.29
601.126	-1.32
601.545	-0.38
601.965	0.18
602.384	0.32
602.803	-0.1
603.222	-0.06
603.641	-0.3
604.061	0.35
604.48	0.25
604.898	0.63
605.317	-0.18
605.736	-0.36
606.155	-0.3
606.574	-1.06
606.992	-1.44
607.411	-1.35
607.829	-2.09
608.248	-2
608.666	-2.48
609.085	-2.26
609.503	-2.29
609.921	-1.41
610.339	-1.81
610.758	-2.27
611.176	-2.41
611.594	-1.6
612.012	-1.01
612.43	-0.1
612.847	-0.24
613.265	0.83
613.683	0.53
614.101	0.87
614.518	0.15
614.936	0.42
615.353	0.54
615.771	0.68
616.188	0.46
616.606	0.03
617.023	-0.1
617.44	0.44
617.857	-0.7
618.274	-0.97
618.691	-0.97
619.108	-1.25
619.525	-1.77
619.942	-1.57
620.359	-1.95
620.776	-2.27
621.192	-1.45
621.609	-0.43
622.026	-0.37
622.442	-0.15
622.859	-0.25
623.275	-0.55
623.691	-0.09
624.108	0.87
624.524	0.52
624.94	0.62
625.356	0.79
625.772	-0.03
626.188	-1.41
626.604	-1.55
627.02	-1.92
627.436	-1.05
627.852	-0.1
628.268	-0.32
628.683	-1.17
629.099	-0.95
629.514	-1.16
629.93	-1.13
630.345	-0.9
630.761	-1.61
631.176	-1.17
631.591	0.89
632.007	0.48
632.422	-0.51
632.837	-0.9
633.252	0.24
633.667	0.05
634.082	0.95
634.497	0.96
634.911	2.25
635.326	2.66
635.741	2.57
636.155	1.29
636.57	2.83
636.984	2.91
637.399	4.22
637.813	3.21
638.228	2.78
638.642	1.01
639.056	0.8
639.47	0.24
639.884	0.38
640.298	0.43
640.712	1.17
641.126	0.23
641.54	-0.59
641.954	-2.84
642.368	-2.89
642.781	-0
643.195	0.88
643.609	1.29
644.022	0.44
644.436	0.15
644.849	-0.67
645.262	-1.63
645.676	-2.95
646.089	-2.31
646.502	0.06
646.915	-0.27
647.328	-1.28
647.741	-0.56
648.154	-0.43
648.567	1.92
648.98	2.59
649.393	2.71
649.805	2.95
650.218	3.52
650.631	3.09
651.043	2.27
651.456	2.89
651.868	2.4
652.28	0.95
652.693	0.02
653.105	-1.71
653.517	-1.94
653.929	-1.81
654.341	-1.27
654.753	-0.79
655.165	-0.12
655.577	-0.29
655.989	-0.94
656.401	-2.47
656.813	-0.98
657.224	-1.19
657.636	-2.28
658.047	-1.43
658.459	-1.24
658.87	-3.27
659.282	-3.64
659.693	-3.16
660.104	-2.03
660.515	-1.88
660.926	-1.99
661.338	-2.03
661.749	-2.36
662.159	-0.22
662.57	-2.08
662.981	-2.66
663.392	-1.92
663.803	-2.36
664.213	-2.59
664.624	-3.61
665.035	-4.38
665.445	-4.77
665.855	-3.56
666.266	-2
666.676	-3.51
667.086	-2.82
667.497	-1.94
667.907	-2.18
668.317	-2.05
668.727	0.45
669.137	-0.53
669.547	-0.22
669.956	-0.51
670.366	-1.58
670.776	-1.81
671.186	-2.08
671.595	-1.89
672.005	-2.47
672.414	-1.81
672.824	-0.37
673.233	-3.08
673.642	-2.61
674.052	-1.93
674.461	-0.57
674.87	-1.35
675.279	-1.17
675.688	-1.92
676.097	-0.97
676.506	-1.03
676.915	-1.09
677.323	-1.68
677.732	-1.41
678.141	-1.3
678.549	-1.14
678.958	-2.59
679.366	-2.78
679.775	-3.83
680.183	-1.39
680.592	-2.79
681	-2.71
681.408	-2.7
681.816	-3.64
682.224	-4.68
682.632	-3.63
683.04	-4.12
683.448	-3.61
683.856	-2.38
684.264	-1.34
684.671	-3.7
685.079	-3.65
685.487	-3.86
685.894	-4.71
686.302	-5.56
686.709	-4.01
687.116	-4.54
687.524	-4.47
687.931	-2.57
688.338	-2.88
688.745	-4.56
689.152	-4.91
689.559	-3.95
689.966	-3.18
690.373	-2.13
690.78	-0.27
691.187	-1.04
691.593	-0.75
692	0.16
692.407	-0.3
692.813	1.89
693.22	3.43
693.626	3.09
694.032	3.17
694.439	2.9
694.845	2.69
695.251	1.61
695.657	1.6
696.063	-0.1
696.469	-1.29
696.875	-1.06
697.281	-2.94
697.687	-3.43
698.093	-2.37
698.498	-2.11
698.904	-2.6
699.31	-3.29
699.715	-1.43
700.12	-1.84
700.526	0.06
700.931	0.04
701.337	0.5
701.742	1.48
702.147	1.33
702.552	1.36
702.957	-0.13
703.362	-0.15
703.767	-0.07
704.172	-1.67
704.577	-1.22
704.981	-2.82
705.386	-2.77
705.791	-3.46
706.195	-5.62
706.6	-5.73
707.004	-6.9
707.408	-6.65
707.813	-5.91
708.217	-5.46
708.621	-5.66
709.025	-6.08
709.43	-3.49
709.834	-3.29
710.237	-3.48
710.641	-2.52
711.045	-1.9
711.449	-0.21
711.853	3.4
712.256	2.84
712.66	2.24
713.064	2.99
713.467	2.9
713.87	1.75
714.274	2.55
714.677	2.82
715.08	4
715.484	3.98
715.887	6.39
716.29	2.73
716.693	3.98
717.096	5.71
717.499	5.54
717.901	5.54
718.304	4.97
718.707	3.62
719.109	3.99
719.512	2.2
719.915	4.5
720.317	1.83
720.719	0.9
721.122	0.49
721.524	0.57
721.926	4.39
722.328	4.85
722.731	3.81
723.133	4.83
723.535	3.85
723.937	4.63
724.338	3.83
724.74	4.21
725.142	49.52
725.544	52.85
725.945	63.21
726.347	59.36
726.748	59.13
727.15	61
727.551	63.89
727.952	62.21
728.354	61.31
728.755	60.58
729.156	59.55
729.557	15.19
729.958	11.99
730.359	1.56
730.76	1.53
731.161	2.54
731.562	1.71
731.962	-2
732.363	-1.77
732.763	-1.41
733.164	-3.09
733.564	-2.47
733.965	-1
734.365	-1.48
734.766	-2.25
735.166	-1.58
735.566	-0.69
735.966	-0.15
736.366	0.96
736.766	1.58
737.166	0.09
737.566	-0.06
737.966	-0.25
738.365	0.32
738.765	1.86
739.165	2.8
739.564	2.05
739.964	-0.87
740.363	-2
740.763	-3.21
741.162	-1.91
741.561	-0.81
741.96	0.32
742.36	-0.53
742.759	-1.72
743.158	-4.03
743.557	-4.68
743.955	-5.81
744.354	-5.11
744.753	-5.72
745.152	-4.28
745.55	-6.84
745.949	-6.89
746.348	-6.69
746.746	-7.66
747.144	-4.49
747.543	-3.95
747.941	-4.53
748.339	-3.49
748.737	-2.52
749.136	-1.85
749.534	-3.96
749.932	-0.77
750.33	-1.75
750.727	-2.67
751.125	-1.35
751.523	-2.66
751.921	-0.32
752.318	1.22
752.716	1.71
753.113	1.5
753.511	1.18
753.908	2.93
754.305	6.2
754.703	7.02
755.1	8.07
755.497	8.13
755.894	6.66
756.291	3.73
756.688	2.65
757.085	1.76
757.482	1.87
757.878	3.77
758.275	3.69
758.672	-4.93
759.068	-6.9
759.465	-11.82
759.861	-14.54
760.258	-16.79
760.654	-13.95
761.05	-11.83
761.447	-11.81
761.843	-9.93
762.239	-8.82
762.635	-11.98
763.031	-13.34
763.427	-12.66
763.822	-9.01
764.218	-9.53
764.614	-7.91
765.01	-8.38
765.405	-8.6
765.801	-6.47
766.196	-6.21
766.592	-8.1
766.987	-5.56
767.382	-4.02
767.778	-3.01
768.173	-3.78
768.568	-3.03
768.963	-2.09
769.358	-2.51
769.753	-1.49
770.148	-1.72
770.542	-1.55
770.937	-1.98
771.332	-2.12
771.726	-4.03
772.121	-0.92
772.515	-0.91
772.91	-0.7
773.304	-1.98
773.699	-2.19
774.093	-3.82
774.487	-4.48
774.881	-4.86
775.275	-3.66
775.669	-5.35
776.063	-4.57
776.457	-6.32
776.851	-6.05
777.245	-5.4
777.638	-5.53
778.032	-6.41
778.425	-4.85
778.819	-2.23
779.212	-1.18
779.606	0.73
779.999	0.31
780.392	1.64
780.786	-1.6
781.179	-1.75
781.572	-1.13
781.965	0.43
782.358	1.07
782.751	-0.74
783.143	-2.69
783.536	-2.34
783.929	-3.98
784.322	-2.86
784.714	-3.58
785.107	-0.99
785.499	0.64
785.891	1.51
786.284	0.6
786.676	0.63
787.068	3.63
787.46	3.92
787.852	0.24
788.245	-1.05
788.636	-2.81
789.028	-0.26
789.42	1.35
789.812	1.49
790.204	0.31
790.595	3.04
790.987	4.69
791.378	3.77
791.77	1.09
792.161	2.17
792.553	3.53
792.944	4.27
793.335	2
793.726	0.4
794.117	0.63
794.508	-1.86
794.899	-6.41
795.29	-8.25
795.681	-10.97
796.072	-9.84
796.463	8.78
796.853	12.42
797.244	13.57
797.634	14.27
798.025	13.16
798.415	9.84
798.806	12
799.196	15.72
799.586	18.35
799.976	20.4
800.366	20.46
800.756	-0.75
801.146	-3.73
801.536	-4.57
801.926	-5.07
802.316	-2.71
802.706	-2.14
803.095	-1.97
803.485	-3.94
803.874	-7.13
804.264	-8.16
804.653	-7.98
805.043	-3.46
805.432	-1.92
805.821	0.82
806.21	1.3
806.599	-2.04
806.988	0.57
807.377	-2.31
807.766	-3.22
808.155	-3.17
808.544	-2.01
808.933	2.09
809.321	4.33
809.71	0.2
810.098	-2.31
810.487	-7.24
810.875	-7.11
811.264	-8.57
811.652	3.03
812.04	3.73
812.428	7.86
812.816	3.97
813.204	1.85
813.592	-6.5
813.98	-6.07
814.368	1.03
814.756	3.73
815.144	6.39
815.531	12.02
815.919	-0.84
816.306	-1.95
816.694	-4.21
817.081	-0.78
817.469	-2.5
817.856	-1.84
818.243	-4.35
818.63	-11.7
819.017	-6.27
819.404	-6.28
819.791	-12.16
820.178	-15.25
820.565	-13.22
820.952	-8.12
821.339	-6.95
821.725	-5.07
822.112	-0.09
822.498	2.64
822.885	1.13
823.271	-3.33
823.657	-8.68
824.044	-4.36
824.43	-3.93
824.816	4.97
825.202	2.66
825.588	2.1
825.974	2.13
826.36	-1.11
826.746	-2.75
827.132	0.76
827.517	6.65
827.903	10.51
828.289	10.08
828.674	13.65
829.06	7.45
829.445	4.23
829.83	2.32
830.216	1.21
830.601	3.91
830.986	13.05
831.371	12.03
831.756	11.92
832.141	19.73
832.526	20.27
832.911	21.42
833.295	20.21
833.68	21.72
834.065	25
834.449	23.68
834.834	23.66
835.218	22.21
835.603	22.46
835.987	19.27
836.371	11.9
836.755	10.19
837.139	6.1
837.524	4.84
837.908	0.56
838.291	3.39
838.675	2.45
839.059	0.35
839.443	-4.06
839.827	-6.15
840.21	-10.08
840.594	-5.89
840.977	-6.42
841.361	-5.91
841.744	-6.45
842.127	-3.84
842.511	-9.21
842.894	-13.06
843.277	-13.82
843.66	-14.59
844.043	-10.86
844.426	-5.57
844.809	-10.31
845.191	-10.14
845.574	-7.43
845.957	-5.67
846.339	-2.99
846.722	-3.74
847.104	-1.91
847.487	-4.59
847.869	-2.97
848.252	-1.71
848.634	-2.7
849.016	-2.26
849.398	-3.98
849.78	-5.7
850.162	-4.47
850.544	-6.54
850.926	-4.25
851.307	-3.61
851.689	1.99
852.071	-3.74
852.452	-6.26
852.834	-5.72
853.215	-3.8
853.597	-4.35
853.978	0.16
854.359	-1.92
854.741	3.04
855.122	1.33
855.503	0.56
855.884	-2.26
856.265	1.68
856.646	-3.14
857.026	1.62
857.407	4.82
857.788	4.62
858.169	-3.62
858.549	1.13
858.93	-1.86
859.31	1.46
859.69	7.85
860.071	9.91
860.451	10.4
860.831	11.96
861.211	3.13
861.591	-3.92
861.971	-5.31
862.351	-3.93
862.731	-11.26
863.111	-10.7
863.491	-10.89
863.87	-17.75
864.25	-20.4
864.629	-11.42
865.009	-10.88
865.388	-7.53
865.768	-10.95
866.147	-7.29
866.526	-1.73
866.905	5.08
867.284	0.2
867.663	-2.18
868.042	-4.01
868.421	-4.41
868.8	-18.15
869.179	-16.96
869.558	-14.12
869.936	-8.15
870.315	-11.14
870.693	-7
871.072	-15.96
871.45	-15.13
871.828	-14.23
872.207	-12.11
872.585	-7.05
872.963	-7.95
873.341	3.4
873.719	6.83
874.097	4.43
874.475	6.42
874.853	-1.59
875.23	5.93
875.608	4.04
875.986	5.1
876.363	9.4
876.741	18.15
877.118	31.92
877.495	27.3
877.873	27.1
878.25	27.71
878.627	27.78
879.004	29.33
879.381	27.54
879.758	33.47
880.135	27.56
880.512	22.75
880.889	4.3
881.265	-2.37
881.642	-8.99
882.019	-10.02
882.395	-1.49
882.772	7.73
883.148	12.28
883.524	8.45
883.901	5.26
884.277	7.32
884.653	2.52
885.029	16.44
885.405	23.03
885.781	22.59
886.157	18.61
886.532	9.15
886.908	0.69
887.284	-6.52
887.659	-1.99
888.035	-5.44
888.411	-11.52
888.786	-6.79
889.161	-19.95
889.537	-27.08
889.912	-26.13
890.287	-24.14
890.662	-22.94
891.037	-27.59
891.412	-25.66
891.787	-33.91
892.162	-25.7
892.536	-22.78
892.911	-15.33
893.286	-12.37
893.66	-8.6
894.035	-7.72
894.409	-16.17
894.784	-9.94
895.158	-4.49
895.532	-2.21
895.906	6.36
896.281	6.55
896.655	9.04
897.029	1.68
897.402	-0.53
897.776	-8.64
898.15	-5.97
898.524	-0.24
898.898	-4.82
899.271	-3.66
899.645	4.26
900.018	6.5
900.392	7.49
900.765	-5.33
901.138	-5.18
901.511	-13.28
901.884	1.67
902.258	7.05
902.631	14.89
903.003	11.76
903.376	2.48
903.749	-3.62
904.122	-18.96
904.495	-36.38
904.867	-25.15
905.24	-14.32
905.612	-8.16
905.985	-28.26
906.357	-37.7
906.729	-47
907.102	-26.44
907.474	-10.41
907.846	-0.12
908.218	2.7
908.59	16.11
908.962	11.44
909.334	8.68
909.705	16.47
910.077	17.47
910.449	9.77
910.82	20.48
911.192	16.56
911.563	10.39
911.935	-11.52
912.306	-23.62
912.677	-30.8
913.048	-22.12
913.419	-26
913.79	-37.7
914.161	-38.66
914.532	-18.61
914.903	-23.12
915.274	-28.7
915.645	-35.57
916.015	-33.66
916.386	-18.07
916.756	-28.79
917.127	-34.08
917.497	-13.54
917.868	-8.9
918.238	-5.91
918.608	-16.68
918.978	-15.09
919.348	-22.5
919.718	-16.66
920.088	2.63
920.458	11.84
920.828	2.7
921.198	14.78
921.567	4.29
921.937	4.76
922.306	-7.7
922.676	-11.28
923.045	7.99
923.415	15.61
923.784	8.46
924.153	9.75
924.522	12.99
924.891	15.44
925.26	14.25
925.629	12.48
925.998	6.15
926.367	22.16
926.736	40.23
927.104	19.45
927.473	5.79
927.842	-4.3
928.21	-25.43
928.578	-60.99
928.947	-34.91
929.315	-33.89
929.683	-26.43
930.051	-27.17
930.42	-49.23
930.788	-47.24
931.156	-37.59
931.523	10.61
931.891	25.38
932.259	38
932.627	74.31
932.994	77.04
933.362	98.32
933.729	72.94
934.097	78.17
934.464	79.43
934.831	62.21
935.199	58.82
935.566	40.8
935.933	98.89
936.3	127.48
936.667	72.37
937.034	144.43
937.401	110.25
937.767	104.37
938.134	94.56
938.501	106.12
938.867	137.69
939.234	214.79
939.6	147.93
939.967	60.55
940.333	60.52
940.699	39.35
941.065	-52.94
941.431	-64.4
941.798	-51.04
942.163	-48.18
942.529	-26.1
942.895	-35.79
943.261	-13.32
943.627	-15.05
943.992	-3.77
944.358	-18.11
944.723	30.3
945.089	25.68
945.454	26.23
945.82	19.81
946.185	5.8
946.55	13.15
946.915	16.42
947.28	14.76
947.645	16.46
948.01	19.29
948.375	16.67
948.74	-28.24
949.104	-32.78
949.469	-143.3
949.834	-335.26
950.198	-200.5
950.562	-83.6
950.927	-57.52
951.291	-110.81
951.655	-88.47
952.02	-127.25
952.384	-73.54
952.748	-21.14
953.112	20.41
953.476	47.37
953.839	56.15
954.203	64.81
954.567	80.63
954.931	75.78
955.294	115.11
955.658	108.83
956.021	211.85
956.385	315.1
956.748	382.64
957.111	232.79
957.474	262.46
957.837	48.8
958.2	-283.03
958.563	-132.26
958.926	-49.18
959.289	-170.68
959.652	-169.21
960.015	-135.31
960.377	-232.46
960.74	-322.96
961.102	-645.63
961.465	-572.96
961.827	163.05
962.189	324.46
962.552	288.97
962.914	256.48
963.276	199.83
963.638	158.92
964	138.19
964.362	122.25
964.724	126
965.085	109.65
965.447	92.14
965.809	-3.42
966.17	-23.44
966.532	-40.18
966.893	-44.56
967.255	-44.52
967.616	-80.18
967.977	-50.29
968.338	-82.98
968.699	-51.92
969.061	-57.23
969.421	-47.73
969.782	-41.15
970.143	-4.69
970.504	33.91
970.865	41.3
971.225	60.77
971.586	78.08
971.946	83.14
972.307	70.46
972.667	57.62
973.027	67.54
973.388	10.69
973.748	-5.08
974.108	4.22
974.468	-99.01
974.828	-33.13
975.188	-33.81
975.548	-31.96
975.907	-14.87
976.267	-2.96
976.627	23.16
976.986	9.05
977.346	-2.17
977.705	8.62
978.064	-4.35
978.424	-2.97
978.783	-27.84
979.142	-31.76
979.501	-26.54
979.86	-19.54
980.219	-33.81
980.578	-87.14
980.937	-97.57
981.296	-72.91
981.654	-59.8
982.013	-126.26
982.371	-154.01
982.73	-112.78
983.088	-153.69
983.447	-163.9
983.805	-286.45
984.163	-414.66
984.521	-556.63
984.879	-1014.53
985.237	1249.36
985.595	-1571.38
985.953	-418.31
986.311	-289.02
986.669	-157.8
987.026	-133.81
987.384	-225.69
987.741	-228.77
988.099	-112.9
988.456	-53.74
988.814	-10.24
989.171	-10.36
989.528	-24.21
989.885	-22.34
990.242	22.75
990.599	-14.24
990.956	0.74
991.313	20.7
991.67	10.66
992.027	41.85
992.383	35.93
992.74	34.45
993.096	43.24
993.453	47.58
993.809	48.25
994.165	30.15
994.522	90.03
994.878	97.14
995.234	117.58
995.59	121.35
995.946	33.97
996.302	36.32
996.658	5.57
997.013	-29.22
997.369	9.78
997.725	25.19
998.08	41.8
998.436	-119.45
998.791	-227.56
999.147	-241.76
999.502	-295.63
999.857	-222.68
1000.212	-395.13
1000.567	-448.92
1000.922	-207.64
1001.277	-160.74
1001.632	-91.37
1001.987	-148.14
1002.342	-85.65
1002.696	-59
1003.051	-32.4
1003.406	-13.89
1003.76	-10.17
1004.114	12.99
1004.469	26.64
1004.823	25.19
1005.177	-6.39
1005.531	-23.27
1005.885	6.83
1006.239	29.96
1006.593	71.46
1006.947	74.16
1007.301	43.58
1007.655	25.92
1008.008	17.09
1008.362	12.18
1008.715	-5.8
1009.069	25.44
1009.422	101.65
1009.776	63.91
1010.129	-46.99
1010.482	-124.7
1010.835	-175.31
1011.188	-423.77
1011.541	-315.23
1011.894	1893.72
1012.247	-6318.22
1012.6	-448.33
1012.952	-254.98
1013.305	-180.9
1013.657	-98.13
1014.01	-89.92
1014.362	-67.04
1014.715	16.14
1015.067	36.64
1015.419	34.64
1015.771	37.72
1016.123	52.08
1016.475	65.35
1016.827	60.07
1017.179	76.9
1017.531	50.67
1017.883	43.3
1018.234	83.87
1018.586	69.37
1018.938	91.05
1019.289	117.9
1019.64	84.3
1019.992	56.06
1020.343	-20.73
1020.694	49.84
1021.045	34.7
1021.396	21.73
1021.747	58.58
1022.098	-14.71
1022.449	-6.25
1022.8	9.6
1023.151	19.95
1023.501	35.86
1023.852	32.5
1024.202	77.35
1024.553	36.77
1024.903	68.61
1025.253	110.12
1025.604	102.46
1025.954	127.53
1026.304	136.01
1026.654	146.56
1027.004	197.25
1027.354	208.64
1027.703	269.58
1028.053	200.46
1028.403	538.4
1028.753	253.74
1029.102	-474.81
1029.452	-5827.9
1029.801	-340.11
1030.15	-223.8
1030.499	-269.45
897.758	1647.18
901.051	1588.03
904.343	1619.59
907.636	1623.88
910.928	1671.58
914.22	1612.28
917.511	1615.96
920.803	1652.1
924.094	1643.15
927.384	1649.37
930.675	1621.19
933.965	1597.75
937.255	1626.03
940.544	1602.73
943.834	1595.27
947.123	1550.36
950.411	1617.01
953.7	1605.25
956.988	1596.66
960.276	1542.9
963.563	1571.92
966.851	1580.74
970.138	1608.68
973.424	1609.3
976.711	1569.69
979.997	1608.15
983.283	1638.27
986.568	1589.45
989.853	1575.64
993.138	1592.38
996.423	1659.73
999.708	1633.5
1002.992	1652.47
1006.275	1583.62
1009.559	1585.82
1012.842	1659.53
1016.125	1625.84
1019.408	1609.17
1022.69	1644.69
1025.972	1671.69
1029.254	1653.41
1032.536	1630.46
1035.817	1630.82
1039.098	1609.49
1042.379	1644.83
1045.659	1664.46
1048.939	1621.99
1052.219	1622.73
1055.498	1615.41
1058.778	1609.78
1062.057	1590.62
1065.335	1609.86
1068.614	1614.11
1071.892	1610.16
1075.17	1647.34
1078.447	1650.53
1081.724	1644.46
1085.001	1660.67
1088.278	1644.28
1091.554	1645.89
1094.83	1644.08
1098.106	1666.81
1101.382	1687.34
1104.657	1686.49
1107.932	1686.6
1111.206	1668.64
1114.481	1633.79
1117.755	1635.75
1121.029	1631.96
1124.302	1675.29
1127.575	1653.37
1130.848	1653.55
1134.121	1634.5
1137.393	1602.44
1140.665	1645.11
1143.937	1627.91
1147.208	1592.92
1150.48	1634.38
1153.75	1624.56
1157.021	1624.07
1160.291	1608.49
1163.561	1646.53
1166.831	1619.81
1170.101	1636.09
1173.37	1608.79
1176.639	1579.22
1179.907	1611.14
1183.176	1626.29
1186.444	1631.51
1189.711	1647.02
1192.979	1666.17
1196.246	1635.25
1199.513	1645.06
1202.78	1646.92
1206.046	1653.96
1209.312	1674.76
1212.578	1682.77
1215.843	1658.98
1219.108	1637.47
1222.373	1653.14
1225.638	1636.44
1228.902	1630.56
1232.166	1598.37
1235.43	1590.91
1238.693	1614.33
1241.956	1608.49
1245.219	1645.42
1248.482	1632.8
1251.744	1634.62
1255.006	1716.79
1258.268	1677.54
1261.529	1649.99
1264.79	1649.46
1268.051	1718.98
1271.312	1723.05
1274.572	1698.53
1277.832	1688.25
1281.092	1672.48
1284.351	1670.52
1287.61	1659.58
1290.869	1617.48
1294.128	1616.14
1297.386	1641.66
1300.644	1637.28
1303.902	1643.63
1307.159	1551.94
1310.416	1587.14
1313.673	1609
1316.93	1610.67
1320.186	1628.59
1323.442	1651.37
1326.697	1651.92
1329.953	1633.08
1333.208	1665.52
1336.463	1644.06
1339.717	1621.98
1342.972	1696.58
1346.226	1679.41
1349.479	1650.17
1352.733	1633.53
1355.986	1642.6
1359.238	1627.87
1362.491	1633.93
1365.743	1633.08
1368.995	1627.7
1372.247	1641.71
1375.498	1653.17
1378.749	1687.57
1382	1653.97
1385.251	1673.27
1388.501	1642.09
1391.751	1640.67
1395	1622.19
1398.25	1639.65
1401.499	1664.24
1404.748	1629.26
1407.996	1616.68
1411.244	1613.53
1414.492	1602.59
1417.74	1593.18
1420.987	1600.12
1424.234	1644.49
1427.481	1615.31
1430.728	1655.57
1433.974	1641.21
1437.22	1635.8
1440.465	1630.51
1443.711	1634.43
1446.956	1647.24
1450.201	1626.23
1453.445	1654.62
1456.689	1644.23
1459.933	1653.59
1463.177	1681.51
1466.42	1663
1469.663	1645.94
1472.906	1658.81
1476.148	1693.98
1479.391	1661.42
1482.633	1646.38
1485.874	1665.16
1489.115	1673.43
1492.356	1659.3
1495.597	1639.61
1498.838	1634.06
1502.078	1625.53
1505.318	1611.4
1508.557	1630.71
1511.797	1625.84
1515.036	1666.4
1518.274	1635.54
1521.513	1594.95
1524.751	1599.89
1527.989	1617.09
1531.227	1631.83
1534.464	1638.76
1537.701	1629.9
1540.938	1634.83
1544.174	1596.79
1547.41	1589.26
1550.646	1613.87
1553.882	1650.32
1557.117	1694.44
1560.352	1697.69
1563.587	1665.25
1566.821	1644.05
1570.055	1655.84
1573.289	1636.84
1576.523	1673.98
1579.756	1684.67
1582.989	1698.56
1586.222	1666.83
1589.454	1692.07
1592.686	1681.39
1595.918	1701
1599.15	1702.05
1602.381	1727.92
1605.612	1716.19
1608.843	1784.32
1612.073	1730.32
1615.303	1724.81
1618.533	1720.6
1621.762	1718.95
1624.992	1694.18
1628.221	1693.32
1631.449	1683.82
1634.678	1702.61
1637.906	1680.3
1641.134	1695.61
1644.361	1669.34
1647.588	1663.68
1650.815	1680.31
1654.042	1652.17
1657.269	1675.3
1660.495	1663.77
1663.72	1649.8
1666.946	1627.13
1670.171	1612.8
1673.396	1594.53
1676.621	1582.63
1679.845	1580.2
1683.069	1581.59
1686.293	1599.05
1689.517	1596.48
1692.74	1563.8
1695.963	1578.52
1699.185	1610.42
1702.408	1594.79
1705.63	1613.2
1708.852	1625.72
1712.073	1601.75
1715.294	1614.95
1718.515	1649.01
1721.736	1620.23
1724.956	1607.09
1728.176	1623.73
1731.396	1637.82
1734.616	1630.97
1737.835	1659.24
1741.054	1636.87
1744.272	1634.05
1747.491	1668.05
1750.709	1680.31
1753.927	1649.29
1757.144	1667.55
1760.361	1710.11
1763.578	1690.01
1766.795	1655.31
1770.011	1643.05
1773.227	1660.79
1776.443	1691.2
1779.658	1720.11
1782.874	1678.89
1786.089	1674.55
1789.303	1675.57
1792.518	1674.92
1795.732	1667.45
1798.945	1675.76
1802.159	1709.08
1805.372	1672.71
1808.585	1666.78
1811.797	1669.13
1815.01	1683.81
1818.222	1705.66
1821.434	1674.83
1824.645	1702.49
1827.856	1710.61
1831.067	1729.53
1834.278	1687.08
1837.488	1674.66
1840.698	1760.58
1843.908	1725.85
1847.117	1705.82
1850.326	1658.12
1853.535	1697.64
1856.744	1728.43
1859.952	1675.1
1863.16	1676.66
1866.368	1694.73
1869.575	1781.44
1872.782	1694.53
1875.989	1650.41
1879.196	1682.98
1882.402	1678.72
1885.608	1703.1
1888.814	1665.67
1892.019	1603.27
1895.224	1644.68
1898.429	1619.96
1901.634	1606.48
1904.838	1590.68
1908.042	1638.17
1911.246	1648.27
1914.449	1625.26
1917.652	1611.33
1920.855	1597.73
1924.058	1614.02
1927.26	1651.09
1930.462	1665.19
1933.664	1696.72
1936.865	1656.7
1940.066	1666.72
1943.267	1625.44
1946.467	1633.25
1949.668	1644.27
1952.868	1698.18
1956.067	1695.19
1959.267	1648.69
1962.466	1666.55
1965.665	1651.5
1968.863	1649.52
1972.061	1646.35
1975.259	1641.74
1978.457	1696.94
1981.654	1667.71
1984.852	1668.8
1988.048	1636.11
1991.245	1624.44
1994.441	1692.11
1997.637	1654.89
2000.833	1642.02
2004.028	1663.86
2007.223	1716.18
2010.418	1707.43
2013.613	1667.46
2016.807	1666.93
2020.001	1661.9
2023.194	1674.94
2026.388	1663.57
2029.581	1622.45
2032.774	1671.08
2035.966	1679.75
2039.158	1642.2
2042.35	1655.3
2045.542	1599.13
2048.733	1659.27
2051.924	1646.39
2055.115	1658.21
2058.306	1635.56
2061.496	1672.11
2064.686	1708.13
2067.875	1634.66
2071.065	1633.56
2074.254	1648.21
2077.442	1611.8
2080.631	1673.83
2083.819	1630.14
2087.007	1624.8
2090.195	1616.04
2093.382	1624.51
2096.569	1618.22
2099.756	1587.24
2102.942	1630.68
2106.128	1641.9
2109.314	1632.17
2112.5	1626.41
2115.685	1599.56
2118.87	1605.44
2122.055	1652.54
2125.239	1636.57
2128.424	1629.09
2131.608	1664.65
2134.791	1655.21
2137.974	1679.02
2141.157	1672.2
2144.34	1654.11
2147.523	1642.04
2150.705	1666.17
2153.887	1636.93
2157.068	1621.98
2160.25	1602.38
2163.431	1619.35
2166.611	1598.77
2169.792	1615.75
2172.972	1550.36
2176.152	1586.41
2179.331	1603.54
2182.511	1607.94
2185.69	1622.17
2188.868	1627.69
2192.047	1651.04
2195.225	1672.03
2198.403	1629.81
2201.58	1619.46
2204.758	1604.82
2207.935	1661.14
2211.111	1603.61
2214.288	1594.99
2217.464	1619.4
2220.64	1583.5
2223.815	1620.52
2226.991	1570.52
2230.166	1578.76
2233.34	1613.47
2236.515	1622.26
2239.689	1675.12
2242.863	1636.71
2246.036	1672.62
2249.209	1662.36
2252.382	1675.6
2255.555	1686.9
2258.727	1653.44
2261.9	1673.48
2265.071	1670.19
2268.243	1666.99
2271.414	1633.95
2274.585	1620.27
2277.756	1665.41
2280.926	1635.31
2284.096	1653.75
2287.266	1604.31
2290.436	1641.72
2293.605	1652.73
2296.774	1683.04
2299.942	1685.66
2303.111	1698.61
2306.279	1737.11
2309.447	1727.33
2312.614	1709.38
2315.781	1726.77
2318.948	1710.87
2322.115	1739.3
2325.281	1658.44
2328.447	1662.8
2331.613	1640.73
2334.779	1637.2
2337.944	1632.58
2341.109	1635.14
2344.274	1627.21
2347.438	1602.03
2350.602	1618.15
2353.766	1622.07
2356.929	1615.95
2360.092	1643.94
2363.255	1623.98
2366.418	1603.92
2369.58	1633.91
2372.742	1603.64
2375.904	1585.08
2379.066	1580.11
2382.227	1596.38
2385.388	1565.47
2388.548	1535.07
2391.709	1561.32
2394.869	1559.62
2398.029	1590.03
2401.188	1582.03
2404.347	1570.6
2407.506	1572.88
2410.665	1615.23
2413.823	1599.01
2416.981	1587.32
2420.139	1601.3
2423.296	1628.86
2426.453	1607.92
2429.61	1622.93
2432.767	1610.09
2435.923	1637.82
2439.079	1592.45
2442.235	1617.06
2445.391	1574.84
2448.546	1608.65
2451.701	1632.51
2454.855	1631.07
2458.009	1649.11
2461.163	1639.13
2464.317	1618.67
2467.471	1637.39
2470.624	1659.57
2473.777	1658.28
2476.929	1671.2
2480.082	1686.52
2483.234	1671.58
2486.385	1626.57
2489.537	1621.05
2492.688	1619.16
2495.839	1635.17
2498.989	1644.76
2502.14	1635.05
2505.29	1630.47
2508.439	1645.22
2511.589	1604.35
2514.738	1603.72
2517.887	1616.85
2521.035	1674.44
2524.183	1639.18
2527.331	1632.04
2530.479	1627.62
2533.627	1630.49
