Data from N_1_DEC_CT_2N_Splice17_11-34-50-930.txt Node
Date: Sat Mar 14 11:34:50 EDT 2020
User: sa697716
Spectrometer: FLMS03696
Trigger mode: 0
Integration Time (sec): 3.180400E-1
Scans to average: 20
Electric dark correction enabled: true
Nonlinearity correction enabled: true
Boxcar width: 5
XAxis mode: Wavelengths
Number of Pixels in Spectrum: 2048
>>>>>Begin Spectral Data<<<<<
187.83	-157370.33
188.298	1262.17
188.766	662.93
189.233	578.76
189.701	712.78
190.169	990
190.636	348.2
191.104	266.79
191.571	1.71
192.039	-68.54
192.506	-91.46
192.974	248.1
193.441	-384.02
193.908	-182.85
194.375	-62.2
194.842	-27.34
195.31	-19.84
195.777	115.79
196.244	191.09
196.711	111.86
197.177	91.47
197.644	40.91
198.111	68.76
198.578	92.33
199.045	52.69
199.511	35.71
199.978	-72.08
200.445	-25.14
200.911	-103.95
201.378	-181.9
201.844	-147.13
202.31	-351.08
202.777	-313.66
203.243	-148.11
203.709	-154.57
204.176	-168.82
204.642	-108.19
205.108	-82.52
205.574	-91.9
206.04	-103
206.506	-82.22
206.972	-100.87
207.438	-81.58
207.903	-111.41
208.369	-89.57
208.835	-80
209.301	-86.33
209.766	-119.73
210.232	-115.8
210.697	-133.01
211.163	-139.07
211.628	-245.87
212.094	-152.71
212.559	-114.4
213.024	-54.5
213.49	-52.38
213.955	-58.2
214.42	-81.4
214.885	-46.07
215.35	-22.46
215.815	36.45
216.28	33.95
216.745	18.84
217.21	37.8
217.675	-9
218.14	-3.21
218.604	-36.19
219.069	-26.5
219.534	12.09
219.998	-7.65
220.463	-17.04
220.927	-95.84
221.392	-84.05
221.856	-40.11
222.32	-98.84
222.785	-77.68
223.249	-114.25
223.713	-95.53
224.177	-88.44
224.642	-204.01
225.106	-291.22
225.57	-361.73
226.034	-191.63
226.497	-275.38
226.961	-216.48
227.425	-226.12
227.889	-289.79
228.353	-303.23
228.816	-743.93
229.28	-696.09
229.744	-570.34
230.207	-231.08
230.671	-164.42
231.134	-426.1
231.597	-445
232.061	-492.48
232.524	-519.75
232.987	-320.91
233.45	-242.42
233.914	-181.44
234.377	-235.44
234.84	-193.96
235.303	-260.92
235.766	-304.31
236.229	-314.75
236.691	-229.03
237.154	-289.12
237.617	-200.51
238.08	-211.85
238.542	-268.24
239.005	-181.8
239.468	-165.17
239.93	-153.34
240.393	-135.9
240.855	-130.62
241.317	-140.58
241.78	-184.66
242.242	-167.07
242.704	-141.87
243.166	-105.86
243.629	-55.46
244.091	-56.69
244.553	-67.56
245.015	-58.51
245.477	-96.1
245.939	-151.54
246.4	-137.01
246.862	-142.97
247.324	-156.54
247.786	-247.34
248.247	-415.54
248.709	-568.11
249.17	-432.51
249.632	-320.19
250.093	-315.56
250.555	-253.88
251.016	-123.51
251.477	-111.48
251.939	-101.66
252.4	-126.5
252.861	-143.43
253.322	-87.45
253.783	-120.08
254.244	-191.43
254.705	-197.03
255.166	-222.96
255.627	-213.25
256.088	-272
256.549	-288.41
257.009	-296.08
257.47	-375.66
257.931	-323.75
258.391	-235.26
258.852	-246.5
259.312	-250.89
259.773	-330.64
260.233	-216.17
260.694	-162.32
261.154	-200.03
261.614	-102.01
262.074	-69.6
262.534	-40.73
262.994	-29.51
263.455	-84.71
263.915	-43.2
264.374	-49.31
264.834	-43.39
265.294	-82.82
265.754	-78.16
266.214	-74.07
266.673	-81.56
267.133	-112.94
267.593	-133.31
268.052	-149.04
268.512	-112.16
268.971	-81.12
269.431	-60.36
269.89	-62.11
270.349	-55.89
270.809	-61.64
271.268	-77.28
271.727	-339.43
272.186	-212.7
272.645	-131.59
273.104	-145.58
273.563	-221.13
274.022	-268.13
274.481	-209
274.94	-142.66
275.399	-130.87
275.857	-198
276.316	-298.05
276.775	-274.99
277.233	-269.59
277.692	-231.82
278.15	-229.38
278.609	-195.48
279.067	-184.93
279.525	-149.48
279.984	-230.19
280.442	-265.04
280.9	-151.92
281.358	-78.66
281.816	-59.26
282.274	-65.97
282.732	-124.39
283.19	-137.72
283.648	-140.98
284.106	-153.34
284.564	-198.93
285.021	-153.12
285.479	-119.34
285.937	-152.05
286.394	-105.66
286.852	-124.73
287.309	-125.36
287.767	-79.62
288.224	-60.7
288.682	-79.58
289.139	-79.08
289.596	-45.52
290.053	-70.17
290.511	-135.01
290.968	-139
291.425	-227.77
291.882	-118.27
292.339	-99.26
292.796	-136.91
293.252	-148.05
293.709	-83.15
294.166	-55.49
294.623	-90.72
295.079	-83.31
295.536	-34.71
295.992	-29.86
296.449	-23.55
296.905	-21.2
297.362	25.94
297.818	18.71
298.274	25.86
298.731	14.06
299.187	2.11
299.643	7.4
300.099	7.14
300.555	-15.35
301.011	25.88
301.467	67.02
301.923	15.95
302.379	-24.74
302.835	-16.7
303.291	-29.51
303.746	-48.27
304.202	-98.69
304.658	-115.5
305.113	-78.43
305.569	-75.21
306.024	-139.76
306.479	-190.11
306.935	-125.62
307.39	-164.66
307.845	-141.29
308.301	-124.79
308.756	-134.83
309.211	-116.12
309.666	-125.42
310.121	-110.51
310.576	-118.31
311.031	-139.36
311.486	-205.82
311.94	-264.33
312.395	-365.62
312.85	-720.95
313.305	-4391.13
313.759	-19228.29
314.214	-1441.98
314.668	-1022.97
315.123	-912.54
315.577	-284.92
316.032	-256.45
316.486	-342.69
316.94	-240.1
317.394	-124.98
317.849	-94.26
318.303	-88.54
318.757	-67.58
319.211	-77.54
319.665	-63.82
320.119	-62.41
320.572	-122.23
321.026	-72.81
321.48	-41.65
321.934	-61.7
322.387	-88.89
322.841	-83.25
323.295	-26.6
323.748	-86.51
324.202	-71.65
324.655	-109.93
325.108	-119.33
325.562	-77.32
326.015	-135.47
326.468	-101.23
326.921	-100.37
327.374	-62.13
327.827	-71.82
328.28	-112.15
328.733	-44.59
329.186	-37.73
329.639	-14.35
330.092	-26.63
330.545	-10.19
330.997	2.54
331.45	30.29
331.903	65.95
332.355	23.45
332.808	-1.16
333.26	13.2
333.713	19.5
334.165	6.06
334.617	-40.72
335.069	-76.5
335.522	-244.85
335.974	-340.91
336.426	-418.45
336.878	-424.82
337.33	-165.72
337.782	-156.16
338.234	-171
338.686	-247.63
339.137	-304.7
339.589	-308.08
340.041	-216.44
340.493	-180.19
340.944	-176.06
341.396	-173.22
341.847	-91.74
342.299	-97.26
342.75	-88.1
343.201	-137.18
343.653	-150.41
344.104	-206.23
344.555	-135.26
345.006	-316.2
345.457	-127.49
345.908	-88.43
346.359	-59.55
346.81	-50.65
347.261	-71.75
347.712	-87.55
348.163	-96.94
348.613	-45.34
349.064	-17.98
349.515	-23.96
349.965	-3.91
350.416	-50
350.866	-77.78
351.317	-136.8
351.767	-209.66
352.217	-324.1
352.668	-257.32
353.118	-177.62
353.568	-278.53
354.018	-193.12
354.468	-150.61
354.918	-65.55
355.368	-55.96
355.818	-85.7
356.268	-301.01
356.718	-964.06
357.168	-176.95
357.617	-115.33
358.067	-217.32
358.517	-216.68
358.966	-275.28
359.416	-309.72
359.865	-409.68
360.315	-516.39
360.764	-209.93
361.213	-107.22
361.663	-163.34
362.112	-249.28
362.561	-386.45
363.01	-262.78
363.459	-224.66
363.908	-259.17
364.357	-208.74
364.806	-398
365.255	-289.84
365.703	-223.87
366.152	-214.1
366.601	-154.23
367.05	-55.23
367.498	-56.74
367.947	-87.62
368.395	-98.8
368.844	-80.42
369.292	-147.32
369.74	-78.38
370.189	-137.94
370.637	-231.76
371.085	-213.34
371.533	-274.11
371.981	-342.78
372.429	-277.25
372.877	-272.76
373.325	-230.36
373.773	-261.63
374.221	-244.3
374.669	-318.46
375.116	-279.57
375.564	-239.24
376.012	-263.14
376.459	-178.53
376.907	-190.86
377.354	-291.7
377.801	-234.95
378.249	-228.92
378.696	-306.79
379.143	-289.81
379.591	-330.02
380.038	-516.41
380.485	-360.6
380.932	-382.04
381.379	-252.87
381.826	-77.67
382.273	-28.37
382.72	-70.09
383.166	-52.94
383.613	-8.09
384.06	-10.25
384.506	-8.49
384.953	-7.18
385.4	-23.54
385.846	-22.52
386.292	-63
386.739	-94.29
387.185	-109.75
387.631	-100.87
388.078	-87.7
388.524	-95.17
388.97	-93.11
389.416	-73.73
389.862	-66.7
390.308	-54.61
390.754	-46.88
391.2	-49.11
391.645	-50.92
392.091	-11.96
392.537	-12.48
392.983	-36.22
393.428	-18.19
393.874	-23.75
394.319	3.24
394.765	18.83
395.21	5.61
395.655	-2.62
396.101	11.26
396.546	17.24
396.991	-5.77
397.436	-6.78
397.881	-0.01
398.326	-11.38
398.771	-5.74
399.216	-17.84
399.661	-27.67
400.106	-19.78
400.551	-13.76
400.995	-13.91
401.44	-15.66
401.885	-12.93
402.329	-10.55
402.774	-10.04
403.218	0.1
403.663	1.55
404.107	3.19
404.551	7.8
404.995	7.27
405.44	0.99
405.884	-1.96
406.328	-7.63
406.772	-11.63
407.216	-7.48
407.66	-8.99
408.104	-18.98
408.547	-18.94
408.991	-18.84
409.435	-21.66
409.879	-17.95
410.322	-13.94
410.766	-12.47
411.209	-6.81
411.653	-5.14
412.096	-4.16
412.54	-5.65
412.983	-4.16
413.426	0.09
413.869	-0.98
414.312	4.05
414.756	0.04
415.199	-2.03
415.642	-0.67
416.085	-0.99
416.527	-3.59
416.97	-7.76
417.413	-4.65
417.856	-5.51
418.298	-7.04
418.741	-9.24
419.184	-13.86
419.626	-18.3
420.069	-15.99
420.511	-14.27
420.953	-11.07
421.396	-7.44
421.838	-5.78
422.28	-6.69
422.722	-5.86
423.164	-7.42
423.606	-5.85
424.048	-6
424.49	-2.31
424.932	-6.17
425.374	-10.36
425.816	-14.03
426.258	-15.32
426.699	-16.65
427.141	-12.12
427.582	-14.66
428.024	-14.1
428.465	-15.42
428.907	-13.16
429.348	-15.28
429.789	-12.25
430.231	-6.81
430.672	-5.78
431.113	-5.23
431.554	-4.35
431.995	-7.54
432.436	-3.06
432.877	-2.75
433.318	0.99
433.759	0.07
434.2	2.14
434.64	1.31
435.081	0.64
435.522	0.31
435.962	-0.32
436.403	1.17
436.843	-1.5
437.284	-3.73
437.724	-5.94
438.164	-11.93
438.604	-11.04
439.045	-9.42
439.485	-6.57
439.925	-8.95
440.365	-8.19
440.805	-7.42
441.245	-5.67
441.685	-3.99
442.125	-4.68
442.564	-5.64
443.004	-2.77
443.444	-3.3
443.883	-2.84
444.323	-6.34
444.762	-9.88
445.202	-11.37
445.641	-10.14
446.081	-13.8
446.52	-13.12
446.959	-10.93
447.398	-8.6
447.837	-8.03
448.276	-10.14
448.716	-11.16
449.154	-11.58
449.593	-8.17
450.032	-8.54
450.471	-11.49
450.91	-11.21
451.349	-9.6
451.787	-10.48
452.226	-12.05
452.664	-12.02
453.103	-10.33
453.541	-11.26
453.98	-8.88
454.418	-8.25
454.856	-6.01
455.295	-5.28
455.733	-5.3
456.171	-5.78
456.609	-4.81
457.047	-2.97
457.485	-2.2
457.923	-0.9
458.361	-1.15
458.798	-1.31
459.236	-1.57
459.674	-2.86
460.111	-2.06
460.549	-1
460.987	-3.38
461.424	-3.94
461.862	-3.05
462.299	-2.77
462.736	-1.72
463.173	-1.04
463.611	1.86
464.048	2.69
464.485	4.16
464.922	3.58
465.359	3.67
465.796	12.16
466.233	13.78
466.67	14.57
467.106	15.02
467.543	13.14
467.98	12.23
468.416	9.5
468.853	8.56
469.29	6.63
469.726	6.41
470.162	5.77
470.599	0.64
471.035	-1.55
471.471	-2.53
471.907	-4.62
472.344	-4.53
472.78	-3.71
473.216	-4.84
473.652	-4.87
474.088	-5.03
474.523	-4.24
474.959	-4.53
475.395	-5.36
475.831	-4.11
476.266	-4.44
476.702	-4.85
477.138	-4.73
477.573	-4.48
478.008	-4.05
478.444	-2.98
478.879	-1.52
479.314	-1.01
479.75	-0.43
480.185	-1.06
480.62	-1.34
481.055	-1.56
481.49	-0.53
481.925	-0
482.36	1.21
482.795	0.65
483.229	-0.36
483.664	-0.92
484.099	-1.25
484.534	-1.57
484.968	-0.19
485.403	-0.92
485.837	-1.83
486.271	-1.65
486.706	-1.93
487.14	-3.16
487.574	-2.28
488.009	-2.38
488.443	-2.19
488.877	-1.19
489.311	-2.12
489.745	-2.56
490.179	-2.26
490.613	0
491.046	-0.64
491.48	-0.58
491.914	-0.31
492.348	-0.48
492.781	-0.08
493.215	-0.38
493.648	-1.68
494.082	-0.81
494.515	-0.58
494.948	0.57
495.382	-0.94
495.815	0.04
496.248	0.55
496.681	-0.27
497.114	-1.17
497.547	-0.55
497.98	0.85
498.413	2.35
498.846	2.44
499.279	2.04
499.711	1.05
500.144	0.91
500.577	0.6
501.009	-0.16
501.442	1.47
501.874	2.59
502.306	1.81
502.739	3.21
503.171	2.42
503.603	2.81
504.036	2.57
504.468	2.75
504.9	2.71
505.332	2.43
505.764	3.01
506.196	2.39
506.627	2.2
507.059	2.11
507.491	-0.6
507.923	-0.32
508.354	-0.14
508.786	0.03
509.217	-0.34
509.649	0.21
510.08	-0.15
510.512	0.37
510.943	0.43
511.374	0.98
511.805	0.91
512.237	0.82
512.668	-0.54
513.099	-1.82
513.53	-1.95
513.961	-1.89
514.391	-2.38
514.822	0.14
515.253	-0.1
515.684	0.05
516.114	-0.24
516.545	0.35
516.975	0.43
517.406	0.86
517.836	0.81
518.267	1.43
518.697	2.28
519.127	2.47
519.558	0.58
519.988	-0.32
520.418	-0.55
520.848	-1.61
521.278	-1.89
521.708	17.74
522.138	18.17
522.567	17.86
522.997	17.56
523.427	16.6
523.857	16.67
524.286	16.69
524.716	17.66
525.145	17.71
525.575	18.3
526.004	17.87
526.433	-1.44
526.863	-1.77
527.292	-0.14
527.721	0.23
528.15	0.46
528.579	0.38
529.008	0.53
529.437	-0.74
529.866	-1.31
530.295	-1.69
530.724	-0.96
531.152	-0.92
531.581	-0.02
532.01	-0.62
532.438	-1.55
532.867	-2.14
533.295	-2
533.723	-2.21
534.152	-1.55
534.58	-0.84
535.008	-0.8
535.436	-0.32
535.865	-0.62
536.293	-1.74
536.721	-2.06
537.149	-1.69
537.576	-0.33
538.004	-0.07
538.432	-0.46
538.86	-0.18
539.287	-1.03
539.715	-0.27
540.143	-1.44
540.57	-0.59
540.998	-0.12
541.425	1.14
541.852	1.36
542.28	0.61
542.707	0.38
543.134	0.6
543.561	0.53
543.988	0.93
544.415	0.34
544.842	0.44
545.269	0.13
545.696	0.39
546.123	-0.1
546.549	-0.09
546.976	0.13
547.403	-0.01
547.829	-0.45
548.256	-1.05
548.682	-1.14
549.108	0.18
549.535	-0.4
549.961	-1.23
550.387	-1.63
550.813	-0.67
551.24	-0.39
551.666	-0.71
552.092	-0.33
552.518	-0.3
552.943	0.74
553.369	0.68
553.795	0.22
554.221	1.57
554.646	1.94
555.072	3.25
555.498	1.6
555.923	0.93
556.349	0.91
556.774	0.4
557.199	0.86
557.625	-0.24
558.05	0.21
558.475	-0.62
558.9	-1.18
559.325	0.17
559.75	-0.14
560.175	0.64
560.6	0.36
561.025	-0.34
561.449	-0.35
561.874	-1.09
562.299	-0.67
562.723	-1.16
563.148	-0.79
563.572	-1.26
563.997	-2.17
564.421	-3.98
564.846	-5.13
565.27	-4.15
565.694	-3.34
566.118	-3.73
566.542	-2.91
566.966	-2.89
567.39	-2.74
567.814	-2.34
568.238	-1.95
568.662	-2.6
569.086	-1.58
569.509	-1.68
569.933	-0.8
570.357	-0.92
570.78	-0.55
571.204	0.79
571.627	0.83
572.05	0.76
572.474	1.05
572.897	0.97
573.32	2.08
573.743	1.94
574.166	2.92
574.589	1.66
575.012	1.71
575.435	1.45
575.858	0.73
576.281	0.93
576.704	0.23
577.126	-0.97
577.549	-1.28
577.972	-2.03
578.394	-2.1
578.817	-1.12
579.239	-1.32
579.661	-1.14
580.084	-0.07
580.506	-0.19
580.928	-1.01
581.35	-0.1
581.772	0.46
582.194	1.04
582.616	0.7
583.038	-0.1
583.46	-1.44
583.882	-1.43
584.303	-2.4
584.725	-3.12
585.147	0.46
585.568	1.11
585.99	0.8
586.411	1.48
586.833	1.06
587.254	1.44
587.675	2.1
588.096	2.32
588.518	2.58
588.939	2.52
589.36	2.79
589.781	-2.17
590.202	0.17
590.623	0.82
591.043	0.13
591.464	0.18
591.885	0.7
592.305	0.13
592.726	-0.89
593.147	-1.05
593.567	0.02
593.987	-0.4
594.408	-0.23
594.828	-2.78
595.248	-2.87
595.669	-2.18
596.089	-1.84
596.509	-2.69
596.929	-2.33
597.349	-1.23
597.769	-1.02
598.189	-1.31
598.608	-1.47
599.028	-1.36
599.448	-1.8
599.867	-1.75
600.287	-2.68
600.706	-2.51
601.126	-1.86
601.545	-1.88
601.965	-2.05
602.384	-1.9
602.803	-1.87
603.222	-1.34
603.641	-1.81
604.061	-0.48
604.48	-0.58
604.898	-0.52
605.317	-0.89
605.736	-1.33
606.155	-0.56
606.574	-0.75
606.992	-1.25
607.411	-0.96
607.829	-1.66
608.248	-1.06
608.666	-2.41
609.085	-2.3
609.503	-2.49
609.921	-1.56
610.339	-1.28
610.758	-2.34
611.176	-2.16
611.594	-1.74
612.012	-1.96
612.43	-1.13
612.847	-1.5
613.265	0
613.683	-0.29
614.101	0.36
614.518	-0.41
614.936	-0.23
615.353	0.83
615.771	1.17
616.188	1.37
616.606	1.17
617.023	1.1
617.44	1.34
617.857	-0.12
618.274	-0.18
618.691	0.03
619.108	0.18
619.525	-0.32
619.942	-0.61
620.359	-0.71
620.776	-0.96
621.192	0.09
621.609	0.54
622.026	1.18
622.442	1.49
622.859	1.04
623.275	0.94
623.691	0.57
624.108	1.16
624.524	0.59
624.94	-0.42
625.356	-0.34
625.772	-1.96
626.188	-2.86
626.604	-3.32
627.02	-3.25
627.436	-2.7
627.852	-2
628.268	-1.26
628.683	-1.94
629.099	-1.44
629.514	-1.48
629.93	-1.72
630.345	-1.53
630.761	-1.41
631.176	-1.21
631.591	-0.31
632.007	0.03
632.422	-1.84
632.837	-3.54
633.252	-2.57
633.667	-2.56
634.082	-1.88
634.497	-1.51
634.911	0.35
635.326	0.29
635.741	0.12
636.155	-0.83
636.57	-0.42
636.984	0.19
637.399	2.02
637.813	1.13
638.228	0.88
638.642	0.36
639.056	0.13
639.47	-0.84
639.884	-0.91
640.298	-0.94
640.712	-0.69
641.126	-0.86
641.54	-1.22
641.954	-3.31
642.368	-2.46
642.781	0.31
643.195	0.84
643.609	1.19
644.022	0.94
644.436	0.2
644.849	-0.49
645.262	-1.03
645.676	-2.59
646.089	-2.18
646.502	0.17
646.915	-1.11
647.328	-2.61
647.741	-2.74
648.154	-3.09
648.567	-1.11
648.98	0.3
649.393	0.15
649.805	1.22
650.218	1.41
650.631	2
651.043	1.06
651.456	1.57
651.868	1.07
652.28	0.75
652.693	-0.62
653.105	-1.71
653.517	-2.45
653.929	-1.66
654.341	-1.6
654.753	-0.28
655.165	-1.11
655.577	-1.27
655.989	-1.23
656.401	-2.8
656.813	-1.48
657.224	-0.67
657.636	-2.16
658.047	-1.21
658.459	-1.22
658.87	-2.47
659.282	-2.79
659.693	-2.07
660.104	-1.25
660.515	-1.7
660.926	-1.58
661.338	-1.8
661.749	-1.68
662.159	-0.36
662.57	-1.78
662.981	-2.14
663.392	-1.85
663.803	-2.52
664.213	-2.92
664.624	-4.41
665.035	-4.7
665.445	-4.41
665.855	-3.68
666.266	-3.09
666.676	-3.71
667.086	-4.15
667.497	-3.41
667.907	-2.91
668.317	-2.75
668.727	0.21
669.137	0.36
669.547	0.24
669.956	-1.09
670.366	-2.6
670.776	-2.66
671.186	-2.99
671.595	-1.96
672.005	-3.29
672.414	-3.31
672.824	-2.35
673.233	-5.69
673.642	-5.32
674.052	-3.95
674.461	-2.63
674.87	-2.21
675.279	-1.97
675.688	-2.98
676.097	-1.3
676.506	-0.64
676.915	-1.58
677.323	-2.04
677.732	-1.59
678.141	-1.88
678.549	-2.88
678.958	-3.44
679.366	-4.12
679.775	-4.99
680.183	-2.26
680.592	-3.65
681	-3.51
681.408	-2.43
681.816	-2.62
682.224	-3.25
682.632	-1.62
683.04	-1.37
683.448	-1
683.856	-0.92
684.264	0.23
684.671	-2.26
685.079	-3.13
685.487	-3.39
685.894	-4.9
686.302	-6.28
686.709	-5.92
687.116	-7.5
687.524	-6.8
687.931	-5.2
688.338	-4.29
688.745	-5.85
689.152	-5.14
689.559	-4.63
689.966	-2.84
690.373	-1.18
690.78	0.2
691.187	0.8
691.593	1.78
692	0.48
692.407	-0.17
692.813	1.76
693.22	3.56
693.626	2.6
694.032	3.76
694.439	3.23
694.845	2.86
695.251	2.57
695.657	2.06
696.063	0.72
696.469	1.34
696.875	1.48
697.281	-0.1
697.687	-1.48
698.093	-1.49
698.498	-1.75
698.904	-3.59
699.31	-4.12
699.715	-2.4
700.12	-2.7
700.526	-1.64
700.931	-2.24
701.337	-1.61
701.742	-0.4
702.147	-0.85
702.552	0.77
702.957	-0.02
703.362	0.77
703.767	-0.08
704.172	-2.01
704.577	-1.97
704.981	-3.61
705.386	-3.31
705.791	-4.07
706.195	-6
706.6	-5.37
707.004	-7.56
707.408	-8.42
707.813	-7.58
708.217	-6.15
708.621	-5.84
709.025	-6.98
709.43	-4.9
709.834	-4.59
710.237	-5.11
710.641	-3.48
711.045	-2.6
711.449	-0.31
711.853	3.3
712.256	2.64
712.66	1.98
713.064	2.21
713.467	4.28
713.87	3.99
714.274	4.77
714.677	5.7
715.08	5.25
715.484	4.46
715.887	5.88
716.29	2.3
716.693	3.83
717.096	4.82
717.499	5.1
717.901	4.64
718.304	4.2
718.707	3.38
719.109	3.17
719.512	1.25
719.915	3.81
720.317	1.15
720.719	0.39
721.122	-0.75
721.524	-0.26
721.926	3.57
722.328	2.56
722.731	2.19
723.133	1.97
723.535	1.62
723.937	2.2
724.338	1.86
724.74	1.95
725.142	49.22
725.544	52.02
725.945	63.17
726.347	59.18
726.748	61.28
727.15	62.5
727.551	65.43
727.952	64.14
728.354	63.64
728.755	62.87
729.156	62.87
729.557	17.9
729.958	14.52
730.359	3.42
730.76	2.83
731.161	1.27
731.562	-0.32
731.962	-2.32
732.363	-1.44
732.763	-0.37
733.164	-2.37
733.564	-1.88
733.965	-0.97
734.365	-0.66
734.766	-1.79
735.166	-1.12
735.566	-0.33
735.966	0.23
736.366	0.24
736.766	-0.02
737.166	-2.27
737.566	-2.18
737.966	-2.66
738.365	-2.65
738.765	-2.04
739.165	-1.35
739.564	-2.11
739.964	-3.82
740.363	-4
740.763	-5.47
741.162	-4.14
741.561	-3.32
741.96	-2.23
742.36	-4
742.759	-4.18
743.158	-5.92
743.557	-5.79
743.955	-7.05
744.354	-6.92
744.753	-7.94
745.152	-6.11
745.55	-8.3
745.949	-7.84
746.348	-9.08
746.746	-8.61
747.144	-6.27
747.543	-5.89
747.941	-6.32
748.339	-4.37
748.737	-3.23
749.136	-2.52
749.534	-4.33
749.932	-2.29
750.33	-2.75
750.727	-2.73
751.125	-1.16
751.523	-3.41
751.921	-0.01
752.318	0.67
752.716	1.87
753.113	1.66
753.511	1.5
753.908	1.84
754.305	4.92
754.703	4.87
755.1	5.63
755.497	5.21
755.894	4.55
756.291	0.86
756.688	0.28
757.085	-2.92
757.482	-2.69
757.878	-0.72
758.275	0.94
758.672	-4.65
759.068	-5
759.465	-6.96
759.861	-8.49
760.258	-11.63
760.654	-10.8
761.05	-5.68
761.447	-6.37
761.843	-6.84
762.239	-8.76
762.635	-11.92
763.031	-14.62
763.427	-12.78
763.822	-11.47
764.218	-11.04
764.614	-9.37
765.01	-11.26
765.405	-14.05
765.801	-11.65
766.196	-11.07
766.592	-12.51
766.987	-11.2
767.382	-11.33
767.778	-12.08
768.173	-11.51
768.568	-11.52
768.963	-9.79
769.358	-7.23
769.753	-5.2
770.148	-3.83
770.542	-3.94
770.937	-3.12
771.332	-2.37
771.726	-2.19
772.121	1.6
772.515	0.88
772.91	0.53
773.304	-0.12
773.699	-1.37
774.093	-2.96
774.487	-3.16
774.881	-3.65
775.275	-2.6
775.669	-3.53
776.063	-3.37
776.457	-5.17
776.851	-4.39
777.245	-4.42
777.638	-4.54
778.032	-4.69
778.425	-2.97
778.819	-1.17
779.212	0.54
779.606	2.76
779.999	2.93
780.392	4.78
780.786	1.82
781.179	2.2
781.572	3.63
781.965	4.06
782.358	5.53
782.751	3.31
783.143	0.87
783.536	-0.33
783.929	-3.09
784.322	-3.88
784.714	-5.36
785.107	-3.77
785.499	-3.04
785.891	-1.6
786.284	-1.59
786.676	-2.92
787.068	0.55
787.46	1.37
787.852	0.02
788.245	-1.02
788.636	-1.07
789.028	0.49
789.42	2.7
789.812	2.32
790.204	0.1
790.595	1.83
790.987	2.25
791.378	1.41
791.77	-1.16
792.161	-1.04
792.553	-0.61
792.944	-0.48
793.335	-3.27
793.726	-2.74
794.117	-1.06
794.508	-2.65
794.899	-5.58
795.29	-6.03
795.681	-8.41
796.072	-7.06
796.463	10.7
796.853	15.26
797.244	17.27
797.634	19.43
798.025	18.2
798.415	15.16
798.806	17.53
799.196	20.17
799.586	21.87
799.976	25.23
800.366	24.56
800.756	4.99
801.146	2.81
801.536	1.42
801.926	0.7
802.316	0.97
802.706	1.82
803.095	3.31
803.485	0.9
803.874	-1.7
804.264	-5.54
804.653	-4.09
805.043	-0.55
805.432	0.47
805.821	1.98
806.21	2.78
806.599	-0.68
806.988	0.58
807.377	-3.87
807.766	-4.46
808.155	-4.78
808.544	-4.49
808.933	-3.71
809.321	-2.63
809.71	-9.97
810.098	-10.32
810.487	-16.27
810.875	-15.9
811.264	-16.1
811.652	-4.89
812.04	-2.46
812.428	-0.61
812.816	-1.48
813.204	-3.37
813.592	-6.17
813.98	-4.16
814.368	-1.16
814.756	3.41
815.144	3.98
815.531	5.68
815.919	-6.35
816.306	-7.72
816.694	-7.35
817.081	-5.32
817.469	-3.6
817.856	-6.56
818.243	-4.4
818.63	-10.18
819.017	-7.99
819.404	-6.42
819.791	-11.59
820.178	-14.4
820.565	-12.51
820.952	-5.25
821.339	-2.47
821.725	-3.06
822.112	-1.51
822.498	-1.31
822.885	-0.31
823.271	-2.93
823.657	-9.01
824.044	-6.58
824.43	-4.49
824.816	2.17
825.202	-0.95
825.588	-4.38
825.974	-4.48
826.36	-3.53
826.746	-4.12
827.132	-6.84
827.517	-0.8
827.903	2.8
828.289	7.34
828.674	10.81
829.06	7.82
829.445	2.84
829.83	1.27
830.216	0.41
830.601	3.36
830.986	9.25
831.371	11.48
831.756	10.89
832.141	20.67
832.526	19.69
832.911	18.33
833.295	13.77
833.68	12.65
834.065	13.94
834.449	15.67
834.834	17.83
835.218	17.42
835.603	19.79
835.987	18.06
836.371	12.46
836.755	14
837.139	9.56
837.524	6.83
837.908	6.08
838.291	10.87
838.675	8.18
839.059	2.18
839.443	-1.15
839.827	-5.05
840.21	-10.18
840.594	-7.87
840.977	-10.31
841.361	-7.35
841.744	-9.69
842.127	-7.71
842.511	-10.68
842.894	-12.61
843.277	-14.51
843.66	-18.88
844.043	-14.28
844.426	-9.67
844.809	-15.93
845.191	-16.26
845.574	-13.04
845.957	-7.55
846.339	-5.58
846.722	-4.94
847.104	-5.59
847.487	-5.11
847.869	-0.13
848.252	-2.23
848.634	-1.12
849.016	0.22
849.398	-2.66
849.78	-6.48
850.162	-5.93
850.544	-7.74
850.926	-13.82
851.307	-14.07
851.689	-12.85
852.071	-19.68
852.452	-18.65
852.834	-22.76
853.215	-20.57
853.597	-20.12
853.978	-16.12
854.359	-14.46
854.741	-7.91
855.122	-7.09
855.503	-6.42
855.884	-6.91
856.265	-5.94
856.646	-16.38
857.026	-9.84
857.407	-8.59
857.788	-11.78
858.169	-19.7
858.549	-11.72
858.93	-15.93
859.31	-13.62
859.69	-8.2
860.071	-6.04
860.451	-2.75
860.831	5.94
861.211	2.14
861.591	-1.25
861.971	-2.45
862.351	4.95
862.731	-7.31
863.111	-6.03
863.491	-1.32
863.87	-5.1
864.25	-8.52
864.629	-2.9
865.009	-6.83
865.388	-7.46
865.768	-10.6
866.147	-4.24
866.526	-7
866.905	-3.85
867.284	-16.54
867.663	-23.07
868.042	-26.61
868.421	-28.48
868.8	-36.12
869.179	-33.22
869.558	-33.68
869.936	-26.64
870.315	-29.44
870.693	-25.9
871.072	-33.39
871.45	-27.62
871.828	-23.32
872.207	-20.61
872.585	-16.58
872.963	-17.97
873.341	-6.56
873.719	4.08
874.097	2.68
874.475	1.4
874.853	-6.69
875.23	-0.53
875.608	2.25
875.986	-1.47
876.363	4.08
876.741	8.02
877.118	17.9
877.495	10.96
877.873	7.84
878.25	2.25
878.627	7.63
879.004	10.48
879.381	2.15
879.758	7.34
880.135	6.05
880.512	-0.38
880.889	-8.08
881.265	-12.47
881.642	-16.59
882.019	-22.5
882.395	-10.1
882.772	-5.81
883.148	-2.39
883.524	6.04
883.901	-0.91
884.277	0.26
884.653	-1.84
885.029	7.31
885.405	14.14
885.781	13.99
886.157	12.8
886.532	4.78
886.908	-3.01
887.284	-14.1
887.659	-18.02
888.035	-15.67
888.411	-21.19
888.786	-16.07
889.161	-18.3
889.537	-30.01
889.912	-28.78
890.287	-26.32
890.662	-30.25
891.037	-33.82
891.412	-27.31
891.787	-33.37
892.162	-26.77
892.536	-24.8
892.911	-22.66
893.286	-30.33
893.66	-27.25
894.035	-26.61
894.409	-32.48
894.784	-21.51
895.158	-20.27
895.532	-16.84
895.906	-6.09
896.281	-6.4
896.655	-3.45
897.029	-9.87
897.402	-3.18
897.776	-10.89
898.15	-17.21
898.524	-8.98
898.898	-13.29
899.271	-9.84
899.645	-3.35
900.018	-5.93
900.392	-6.37
900.765	-5.71
901.138	0.38
901.511	-4.63
901.884	10.21
902.258	16.85
902.631	14.01
903.003	4.85
903.376	-2.49
903.749	-4.8
904.122	-11.38
904.495	-24.26
904.867	-30.75
905.24	-24.93
905.612	-23.97
905.985	-39.59
906.357	-44.29
906.729	-38.08
907.102	-24.85
907.474	-11.79
907.846	-5.42
908.218	-7.4
908.59	8.36
908.962	8.96
909.334	5.94
909.705	16.69
910.077	17.55
910.449	18.42
910.82	25.32
911.192	28.89
911.563	37.97
911.935	19.11
912.306	8.71
912.677	-4.1
913.048	4.56
913.419	13
913.79	-8.8
914.161	-7.11
914.532	-3.34
914.903	-13.31
915.274	-20.65
915.645	-21.59
916.015	-20.5
916.386	-11.08
916.756	-21.13
917.127	-33.21
917.497	-34.42
917.868	-28.21
918.238	-21.61
918.608	-36.96
918.978	-40.84
919.348	-47.76
919.718	-65.64
920.088	-53.99
920.458	-53.04
920.828	-67.11
921.198	-42.68
921.567	-45.81
921.937	-28.86
922.306	-47.14
922.676	-51.99
923.045	-16.21
923.415	-2.44
923.784	3.29
924.153	3.97
924.522	9.98
924.891	9.49
925.26	-6.47
925.629	-6.21
925.998	-22.26
926.367	-6.21
926.736	27.27
927.104	-1.15
927.473	-22.34
927.842	-51.58
928.21	-62.35
928.578	-75.8
928.947	-39.31
929.315	-27.13
929.683	-31.18
930.051	-11.56
930.42	-26.61
930.788	-54.89
931.156	-51.69
931.523	-5.45
931.891	23.83
932.259	28.49
932.627	33
932.994	25.81
933.362	63.8
933.729	51.76
934.097	44.27
934.464	60.82
934.831	54.09
935.199	41.82
935.566	15.7
935.933	41.43
936.3	84.75
936.667	61.51
937.034	125.05
937.401	98.29
937.767	97.33
938.134	87.39
938.501	83.4
938.867	105.63
939.234	160.25
939.6	82.41
939.967	20.01
940.333	7.34
940.699	-14.05
941.065	-92.93
941.431	-135.08
941.798	-112.06
942.163	-148.96
942.529	-91.7
942.895	-106.14
943.261	-46.04
943.627	-38.73
943.992	-28.89
944.358	-40.97
944.723	-3.23
945.089	5.52
945.454	14.42
945.82	2.62
946.185	3.61
946.55	-3.06
946.915	2.51
947.28	-27.8
947.645	-25.8
948.01	-9.41
948.375	-2.19
948.74	-32.6
949.104	-61.74
949.469	-184.82
949.834	-338.87
950.198	-188.63
950.562	-41.73
950.927	-4.42
951.291	6.64
951.655	26.13
952.02	-31.24
952.384	-9.99
952.748	22.66
953.112	57.4
953.476	80.22
953.839	75.51
954.203	74.33
954.567	72.45
954.931	50.81
955.294	80.67
955.658	65.67
956.021	154.57
956.385	148.32
956.748	179.07
957.111	77.31
957.474	65.39
957.837	-59.94
958.2	-270.61
958.563	-48.82
958.926	-26.1
959.289	-143.12
959.652	-98.06
960.015	-54.31
960.377	-88.62
960.74	-150.04
961.102	-363.67
961.465	-290.12
961.827	230.9
962.189	353.73
962.552	179.43
962.914	218.96
963.276	169.74
963.638	112.84
964	28.96
964.362	65.04
964.724	64.6
965.085	45.1
965.447	42.56
965.809	-36.02
966.17	-44.84
966.532	-53.68
966.893	-57.81
967.255	-46.65
967.616	-73.88
967.977	-29.47
968.338	-55.32
968.699	-30.87
969.061	-27.45
969.421	-26.36
969.782	-38.79
970.143	-0.22
970.504	37.52
970.865	59.75
971.225	89.29
971.586	94.65
971.946	90.57
972.307	86.74
972.667	54.2
973.027	78.49
973.388	27.57
973.748	45.9
974.108	20.55
974.468	-96.08
974.828	22.03
975.188	-27.65
975.548	-41.3
975.907	-21.26
976.267	-18.4
976.627	19.75
976.986	3.99
977.346	-3.32
977.705	-7.53
978.064	-6.44
978.424	12.92
978.783	-41.5
979.142	-44.88
979.501	-25.04
979.86	-21.73
980.219	-25.43
980.578	-65.91
980.937	-89.81
981.296	-55.66
981.654	-57.07
982.013	-145.92
982.371	-221.13
982.73	-197.65
983.088	-225.55
983.447	-223.48
983.805	-279.03
984.163	-559.76
984.521	-654.21
984.879	-872.92
985.237	985.58
985.595	-460.38
985.953	-73.22
986.311	-91.45
986.669	-31.35
987.026	-31.34
987.384	-93.14
987.741	-155.3
988.099	-76.93
988.456	-66.04
988.814	-44.32
989.171	-56.41
989.528	-106.36
989.885	-116.83
990.242	-67.92
990.599	-107.46
990.956	-72.69
991.313	-37.7
991.67	-18.37
992.027	16.07
992.383	15.81
992.74	22.73
993.096	33.17
993.453	34.78
993.809	24.73
994.165	26.49
994.522	84.62
994.878	75.05
995.234	81.5
995.59	69.27
995.946	-6.67
996.302	19.28
996.658	-11.3
997.013	-54.67
997.369	-25.85
997.725	0.3
998.08	-14.28
998.436	-266.2
998.791	-331.69
999.147	-291.98
999.502	-301.63
999.857	-208.3
1000.212	-399.24
1000.567	-486.5
1000.922	-231.14
1001.277	-178.89
1001.632	-98.67
1001.987	-119.92
1002.342	-52.15
1002.696	-10.78
1003.051	0.63
1003.406	-3.32
1003.76	-31.39
1004.114	-32.86
1004.469	-22.18
1004.823	-17.59
1005.177	-27.85
1005.531	-25.33
1005.885	-1.5
1006.239	9.8
1006.593	-13.28
1006.947	-30.26
1007.301	-30.23
1007.655	-28.63
1008.008	-1.93
1008.362	-19.5
1008.715	-45.84
1009.069	-27.6
1009.422	19.17
1009.776	-48.97
1010.129	-48.84
1010.482	-61.01
1010.835	-74.58
1011.188	-189.06
1011.541	-220.2
1011.894	1930.87
1012.247	-5742.18
1012.6	-375.78
1012.952	-227.75
1013.305	-188.81
1013.657	-124.44
1014.01	-134.51
1014.362	-121.18
1014.715	-62.97
1015.067	-33.65
1015.419	-24.25
1015.771	-8.02
1016.123	15.92
1016.475	20.83
1016.827	20.56
1017.179	51.35
1017.531	33.35
1017.883	37.44
1018.234	104.55
1018.586	115.59
1018.938	151.81
1019.289	197.74
1019.64	172.59
1019.992	108.7
1020.343	71.24
1020.694	110.46
1021.045	75.71
1021.396	82.66
1021.747	94.73
1022.098	-4.9
1022.449	-31.84
1022.8	-47.54
1023.151	-14.48
1023.501	14.71
1023.852	10.71
1024.202	30.83
1024.553	-8.78
1024.903	28.84
1025.253	68.49
1025.604	80.8
1025.954	90.71
1026.304	87.85
1026.654	85.26
1027.004	85.38
1027.354	30.64
1027.703	148.67
1028.053	181.95
1028.403	399.54
1028.753	204.29
1029.102	-571.84
1029.452	-6579.8
1029.801	-322.8
1030.15	-185.63
1030.499	-199.77
897.758	1657.06
901.051	1597.32
904.343	1628.21
907.636	1632.3
910.928	1681.27
914.22	1620.17
917.511	1625.1
920.803	1657.42
924.094	1649.93
927.384	1657.42
930.675	1627.16
933.965	1603.85
937.255	1631.38
940.544	1608.43
943.834	1601.98
947.123	1556
950.411	1625.38
953.7	1614.38
956.988	1605.29
960.276	1548.28
963.563	1577.4
966.851	1588.35
970.138	1615.05
973.424	1617.02
976.711	1576.9
979.997	1615.29
983.283	1646.38
986.568	1596.13
989.853	1582.6
993.138	1597.19
996.423	1669.3
999.708	1640.66
1002.992	1659.56
1006.275	1593.32
1009.559	1594.61
1012.842	1668.57
1016.125	1634.71
1019.408	1616.26
1022.69	1652.32
1025.972	1678.14
1029.254	1662.87
1032.536	1637.92
1035.817	1641.2
1039.098	1618.93
1042.379	1653.81
1045.659	1673.04
1048.939	1632.41
1052.219	1631.8
1055.498	1626.38
1058.778	1620.11
1062.057	1601.88
1065.335	1620.76
1068.614	1624.17
1071.892	1620.01
1075.17	1657.38
1078.447	1660.36
1081.724	1653.82
1085.001	1670.65
1088.278	1654.87
1091.554	1653.24
1094.83	1652.96
1098.106	1676.1
1101.382	1695.17
1104.657	1694.54
1107.932	1695.51
1111.206	1680.29
1114.481	1643.53
1117.755	1645.81
1121.029	1638.95
1124.302	1682.6
1127.575	1663.81
1130.848	1662.89
1134.121	1642.21
1137.393	1611.7
1140.665	1653.34
1143.937	1635.05
1147.208	1598.9
1150.48	1641.66
1153.75	1632.09
1157.021	1633.09
1160.291	1617.14
1163.561	1653.59
1166.831	1626.25
1170.101	1643.69
1173.37	1614.07
1176.639	1584.97
1179.907	1617.82
1183.176	1630.86
1186.444	1635.27
1189.711	1651.9
1192.979	1670.24
1196.246	1639.32
1199.513	1649.55
1202.78	1652.71
1206.046	1658.92
1209.312	1682.73
1212.578	1691.21
1215.843	1666.68
1219.108	1646.87
1222.373	1663.01
1225.638	1644.68
1228.902	1639.27
1232.166	1608.34
1235.43	1598.13
1238.693	1621.41
1241.956	1616.49
1245.219	1652.29
1248.482	1641.23
1251.744	1642.03
1255.006	1725.18
1258.268	1684.86
1261.529	1657.84
1264.79	1656.95
1268.051	1725.3
1271.312	1734.39
1274.572	1707.63
1277.832	1699.25
1281.092	1682.32
1284.351	1678.76
1287.61	1668.42
1290.869	1623.7
1294.128	1623.82
1297.386	1651.17
1300.644	1646.08
1303.902	1653.04
1307.159	1557.37
1310.416	1595.02
1313.673	1614.1
1316.93	1617.92
1320.186	1635.93
1323.442	1658.25
1326.697	1660.51
1329.953	1640.02
1333.208	1670.82
1336.463	1651.88
1339.717	1628.63
1342.972	1706.71
1346.226	1686.29
1349.479	1657.35
1352.733	1641.1
1355.986	1649.01
1359.238	1634.93
1362.491	1638.91
1365.743	1640.74
1368.995	1636.62
1372.247	1647.12
1375.498	1658.95
1378.749	1693.53
1382	1661.07
1385.251	1680.56
1388.501	1648.38
1391.751	1648.61
1395	1630.78
1398.25	1649.78
1401.499	1671.62
1404.748	1635.86
1407.996	1625.69
1411.244	1622.31
1414.492	1609.71
1417.74	1602.38
1420.987	1608.08
1424.234	1652.94
1427.481	1622.77
1430.728	1661.17
1433.974	1647.61
1437.22	1644.89
1440.465	1638.48
1443.711	1641.41
1446.956	1654.49
1450.201	1634.95
1453.445	1663.14
1456.689	1654
1459.933	1661.8
1463.177	1693.08
1466.42	1673.74
1469.663	1657.16
1472.906	1668.91
1476.148	1702.13
1479.391	1669.63
1482.633	1655.13
1485.874	1674.91
1489.115	1681.81
1492.356	1668.8
1495.597	1651.22
1498.838	1642.25
1502.078	1634.55
1505.318	1619.03
1508.557	1639.07
1511.797	1637.15
1515.036	1677.48
1518.274	1647.56
1521.513	1603.42
1524.751	1608.46
1527.989	1624.5
1531.227	1638.1
1534.464	1646.17
1537.701	1637.2
1540.938	1641.92
1544.174	1600.71
1547.41	1594.8
1550.646	1620.53
1553.882	1654.99
1557.117	1699.75
1560.352	1704.97
1563.587	1674.9
1566.821	1652.59
1570.055	1662.51
1573.289	1644.83
1576.523	1681.91
1579.756	1695.84
1582.989	1706.95
1586.222	1674.34
1589.454	1699.66
1592.686	1690.03
1595.918	1707.11
1599.15	1705.5
1602.381	1733.6
1605.612	1723.32
1608.843	1789.96
1612.073	1735.42
1615.303	1729.54
1618.533	1724.37
1621.762	1725.88
1624.992	1700.36
1628.221	1700.12
1631.449	1692.28
1634.678	1711.57
1637.906	1687.04
1641.134	1702.44
1644.361	1677.89
1647.588	1672.75
1650.815	1688.93
1654.042	1664.39
1657.269	1681.82
1660.495	1671.87
1663.72	1658.14
1666.946	1634.38
1670.171	1620.5
1673.396	1601.8
1676.621	1590.84
1679.845	1585.55
1683.069	1587.28
1686.293	1605.06
1689.517	1600.6
1692.74	1570.44
1695.963	1585.68
1699.185	1615.47
1702.408	1598.98
1705.63	1617.98
1708.852	1631.16
1712.073	1608.12
1715.294	1624.04
1718.515	1656.36
1721.736	1627.62
1724.956	1614.05
1728.176	1630.57
1731.396	1643.94
1734.616	1638.83
1737.835	1669.24
1741.054	1644.16
1744.272	1642.11
1747.491	1675.05
1750.709	1687.74
1753.927	1657.85
1757.144	1676.86
1760.361	1719.06
1763.578	1697.18
1766.795	1662.47
1770.011	1649.97
1773.227	1667.3
1776.443	1699.88
1779.658	1728.17
1782.874	1684.81
1786.089	1680.04
1789.303	1680.79
1792.518	1679.01
1795.732	1672.4
1798.945	1683.22
1802.159	1716.87
1805.372	1679.08
1808.585	1674.65
1811.797	1675.56
1815.01	1692.86
1818.222	1716.16
1821.434	1684.75
1824.645	1712.4
1827.856	1720.08
1831.067	1740.65
1834.278	1698.44
1837.488	1684.91
1840.698	1771.23
1843.908	1734.72
1847.117	1714.59
1850.326	1665.65
1853.535	1705.78
1856.744	1737.86
1859.952	1684.44
1863.16	1687.54
1866.368	1703.5
1869.575	1789.94
1872.782	1705.31
1875.989	1661.17
1879.196	1694.57
1882.402	1690.52
1885.608	1714.43
1888.814	1678.17
1892.019	1612.72
1895.224	1655.35
1898.429	1628.95
1901.634	1616.03
1904.838	1600.07
1908.042	1644.63
1911.246	1656.91
1914.449	1633.57
1917.652	1619.03
1920.855	1604.25
1924.058	1620.01
1927.26	1658.04
1930.462	1672.01
1933.664	1703.26
1936.865	1664.47
1940.066	1674.12
1943.267	1635.01
1946.467	1642.27
1949.668	1652.68
1952.868	1706.17
1956.067	1704.24
1959.267	1657.44
1962.466	1675.34
1965.665	1659.04
1968.863	1658.56
1972.061	1654.67
1975.259	1651.3
1978.457	1704.76
1981.654	1673.2
1984.852	1674.37
1988.048	1644.18
1991.245	1630.7
1994.441	1699.51
1997.637	1660.41
2000.833	1649.19
2004.028	1671.69
2007.223	1722.66
2010.418	1712.29
2013.613	1674.5
2016.807	1674.84
2020.001	1667.88
2023.194	1680.63
2026.388	1669.12
2029.581	1625.59
2032.774	1675.88
2035.966	1684.49
2039.158	1646.56
2042.35	1659.21
2045.542	1604.85
2048.733	1661.86
2051.924	1649.41
2055.115	1662.01
2058.306	1639.02
2061.496	1678.24
2064.686	1713.4
2067.875	1642.27
2071.065	1642.03
2074.254	1653.72
2077.442	1620.2
2080.631	1680.81
2083.819	1639.16
2087.007	1633.54
2090.195	1626.09
2093.382	1632.56
2096.569	1626.37
2099.756	1597.47
2102.942	1638.74
2106.128	1646.9
2109.314	1641.67
2112.5	1634.2
2115.685	1607.13
2118.87	1612.42
2122.055	1660.94
2125.239	1644.91
2128.424	1639.16
2131.608	1672.81
2134.791	1662.71
2137.974	1687.88
2141.157	1681.89
2144.34	1661.73
2147.523	1649.35
2150.705	1674.48
2153.887	1646.09
2157.068	1629.97
2160.25	1610.21
2163.431	1626.8
2166.611	1606.34
2169.792	1624.93
2172.972	1557.45
2176.152	1595.03
2179.331	1612.71
2182.511	1617.56
2185.69	1632.49
2188.868	1637.17
2192.047	1661.02
2195.225	1681.78
2198.403	1639.58
2201.58	1630.23
2204.758	1616.42
2207.935	1671.21
2211.111	1612.74
2214.288	1604.11
2217.464	1628.92
2220.64	1592.15
2223.815	1629.77
2226.991	1579.16
2230.166	1587.6
2233.34	1622.52
2236.515	1631.69
2239.689	1680.14
2242.863	1644.18
2246.036	1680.84
2249.209	1668.93
2252.382	1682.86
2255.555	1693.15
2258.727	1659.49
2261.9	1677.7
2265.071	1674.97
2268.243	1673.58
2271.414	1638.25
2274.585	1627.22
2277.756	1673.62
2280.926	1642.6
2284.096	1661.08
2287.266	1611.64
2290.436	1648.83
2293.605	1658.92
2296.774	1692.4
2299.942	1693.22
2303.111	1705.42
2306.279	1745.06
2309.447	1735.56
2312.614	1716.3
2315.781	1733.32
2318.948	1718.43
2322.115	1745.73
2325.281	1665.45
2328.447	1672.26
2331.613	1646.9
2334.779	1645.09
2337.944	1638.85
2341.109	1641.55
2344.274	1633.27
2347.438	1607.94
2350.602	1623.55
2353.766	1627.72
2356.929	1621.38
2360.092	1650.8
2363.255	1628.85
2366.418	1610.81
2369.58	1642.07
2372.742	1611.13
2375.904	1592.02
2379.066	1587
2382.227	1604.47
2385.388	1575.64
2388.548	1545.1
2391.709	1571.52
2394.869	1567.54
2398.029	1601.24
2401.188	1589.89
2404.347	1575
2407.506	1578.52
2410.665	1621.43
2413.823	1604.65
2416.981	1592.18
2420.139	1603.23
2423.296	1631.28
2426.453	1610.87
2429.61	1626.08
2432.767	1611.56
2435.923	1643.12
2439.079	1597.86
2442.235	1622.63
2445.391	1581.68
2448.546	1616.12
2451.701	1638.94
2454.855	1638.53
2458.009	1656.61
2461.163	1645.92
2464.317	1624.45
2467.471	1641.29
2470.624	1664.41
2473.777	1662.23
2476.929	1674.93
2480.082	1689.13
2483.234	1674.05
2486.385	1629.16
2489.537	1625.35
2492.688	1621.21
2495.839	1637.71
2498.989	1648.87
2502.14	1640.45
2505.29	1635.22
2508.439	1650.55
2511.589	1610.06
2514.738	1608.36
2517.887	1621.77
2521.035	1682.42
2524.183	1644.98
2527.331	1639.46
2530.479	1635.18
2533.627	1637.92
