Data from N_1_DEC_CT_2N_Splice17_11-34-44-993.txt Node
Date: Sat Mar 14 11:34:44 EDT 2020
User: sa697716
Spectrometer: FLMS03696
Trigger mode: 0
Integration Time (sec): 3.180400E-1
Scans to average: 20
Electric dark correction enabled: true
Nonlinearity correction enabled: true
Boxcar width: 5
XAxis mode: Wavelengths
Number of Pixels in Spectrum: 2048
>>>>>Begin Spectral Data<<<<<
187.83	-141109.66
188.298	1065.6
188.766	599.38
189.233	558.85
189.701	668.9
190.169	914.58
190.636	367.08
191.104	286.87
191.571	81.91
192.039	-21.77
192.506	-46.73
192.974	172.88
193.441	-505.22
193.908	-67.68
194.375	24.85
194.842	-11.37
195.31	37.03
195.777	121.17
196.244	211.45
196.711	147.66
197.177	123.45
197.644	98.77
198.111	112.69
198.578	141.18
199.045	92.69
199.511	103.34
199.978	50.43
200.445	34.65
200.911	13.4
201.378	-69.59
201.844	-44.12
202.31	-87.94
202.777	-116.49
203.243	-52.53
203.709	-42.14
204.176	-69.62
204.642	-59.62
205.108	-30.66
205.574	-37.39
206.04	-54.91
206.506	-50.96
206.972	-64.57
207.438	-81.12
207.903	-90.45
208.369	-57.6
208.835	-42.68
209.301	-37.61
209.766	-59.61
210.232	-63.76
210.697	-85.85
211.163	-135.36
211.628	-228.89
212.094	-148.83
212.559	-110.21
213.024	-62.43
213.49	-65.09
213.955	-74.35
214.42	-113.49
214.885	-66.7
215.35	-56.23
215.815	23.96
216.28	46.66
216.745	45.66
217.21	63.82
217.675	29.54
218.14	34.55
218.604	20.17
219.069	23.23
219.534	58.81
219.998	37.68
220.463	32.82
220.927	-41.26
221.392	-50.25
221.856	-32.84
222.32	-105.11
222.785	-103.12
223.249	-140.36
223.713	-169.5
224.177	-152.9
224.642	-255.03
225.106	-307.09
225.57	-352.59
226.034	-199.17
226.497	-268.61
226.961	-193.36
227.425	-155.64
227.889	-196.11
228.353	-210.04
228.816	-465.98
229.28	-438.6
229.744	-302.64
230.207	-135.07
230.671	-128.71
231.134	-351.17
231.597	-367.7
232.061	-505.23
232.524	-565.99
232.987	-367.7
233.45	-291.31
233.914	-248.61
234.377	-280.24
234.84	-270.77
235.303	-338.45
235.766	-369.22
236.229	-360.33
236.691	-247.06
237.154	-265.78
237.617	-161.17
238.08	-187.94
238.542	-228.05
239.005	-153.09
239.468	-137.37
239.93	-119.61
240.393	-109.08
240.855	-85.26
241.317	-92.83
241.78	-125.41
242.242	-120.73
242.704	-112.93
243.166	-73.74
243.629	-36.74
244.091	-48.88
244.553	-47.14
245.015	-49.08
245.477	-65.82
245.939	-149.89
246.4	-122.18
246.862	-119.25
247.324	-106.03
247.786	-148.35
248.247	-251.9
248.709	-427.71
249.17	-264.02
249.632	-194
250.093	-198.18
250.555	-183.21
251.016	-46.91
251.477	-48.53
251.939	-41.51
252.4	-44.89
252.861	-85.95
253.322	-57.94
253.783	-71.54
254.244	-138.61
254.705	-167.66
255.166	-195.71
255.627	-195.11
256.088	-295.85
256.549	-336.47
257.009	-293.32
257.47	-397.61
257.931	-317.84
258.391	-233.12
258.852	-229.48
259.312	-245.55
259.773	-321.33
260.233	-190.93
260.694	-138.69
261.154	-166.26
261.614	-67.26
262.074	-56.74
262.534	-38.64
262.994	-25.36
263.455	-41.91
263.915	-12.67
264.374	-0.94
264.834	8.51
265.294	-12.35
265.754	10.61
266.214	14.46
266.673	-16.11
267.133	-37.94
267.593	-60.18
268.052	-54.67
268.512	-59.63
268.971	-15.3
269.431	-13.83
269.89	-10.32
270.349	-34.31
270.809	-46.53
271.268	-45
271.727	-201.22
272.186	-125
272.645	-58.62
273.104	-112.62
273.563	-184.72
274.022	-224.92
274.481	-166.79
274.94	-123.19
275.399	-104.57
275.857	-164.35
276.316	-256.46
276.775	-215.36
277.233	-203.01
277.692	-162.73
278.15	-147.65
278.609	-89.61
279.067	-89.61
279.525	-84.4
279.984	-137.89
280.442	-150.09
280.9	-32.71
281.358	-22.98
281.816	-22.07
282.274	-36.93
282.732	-86.19
283.19	-98.33
283.648	-125.9
284.106	-146.44
284.564	-165.44
285.021	-127.37
285.479	-99.11
285.937	-124.74
286.394	-90.43
286.852	-101.36
287.309	-96.55
287.767	-61.72
288.224	-54.32
288.682	-59.79
289.139	-51.99
289.596	-34.86
290.053	-62.61
290.511	-88.7
290.968	-113.63
291.425	-210.1
291.882	-115.19
292.339	-94.76
292.796	-124.13
293.252	-101.6
293.709	-40.65
294.166	-35.38
294.623	-61.82
295.079	-60.09
295.536	-33.02
295.992	-4.32
296.449	12.47
296.905	11.7
297.362	47.26
297.818	33.89
298.274	42.56
298.731	20.28
299.187	26.74
299.643	46.5
300.099	63.55
300.555	48.32
301.011	52.42
301.467	104.11
301.923	53.79
302.379	30.05
302.835	50.24
303.291	47.61
303.746	40.82
304.202	28.79
304.658	-9.06
305.113	19.7
305.569	31.74
306.024	-20.84
306.479	-74.9
306.935	-18.7
307.39	-53.68
307.845	-53.44
308.301	-50.99
308.756	-71.15
309.211	-51.61
309.666	-61.58
310.121	-79.62
310.576	-106.5
311.031	-115.35
311.486	-187.67
311.94	-226.08
312.395	-320.37
312.85	-627.3
313.305	-3763.57
313.759	-13143.1
314.214	-1153.79
314.668	-786.5
315.123	-590.6
315.577	-191.97
316.032	-145.61
316.486	-145.24
316.94	-67.17
317.394	-34.51
317.849	-27.08
318.303	-28.76
318.757	-18.59
319.211	-5.95
319.665	-4.85
320.119	-16.05
320.572	-51.22
321.026	-37.01
321.48	-37.54
321.934	-64.74
322.387	-66.2
322.841	-54.64
323.295	4.93
323.748	-59.89
324.202	-59.03
324.655	-77.2
325.108	-53.57
325.562	2.19
326.015	-21.46
326.468	1.1
326.921	10.02
327.374	32.08
327.827	47.84
328.28	12.57
328.733	50.77
329.186	52.41
329.639	54.79
330.092	36.04
330.545	42.41
330.997	55.71
331.45	84.7
331.903	107.36
332.355	150.38
332.808	118.24
333.26	98.82
333.713	84.21
334.165	77.36
334.617	57.22
335.069	-27.5
335.522	-179.01
335.974	-223.3
336.426	-318.61
336.878	-296.35
337.33	-135.8
337.782	-142.6
338.234	-159.16
338.686	-208.71
339.137	-283.86
339.589	-217.87
340.041	-146.64
340.493	-113.24
340.944	-112.17
341.396	-105.58
341.847	-46.1
342.299	-16.5
342.75	31.26
343.201	-20.11
343.653	-31.24
344.104	-76.68
344.555	-75.25
345.006	-150.26
345.457	-29.62
345.908	-49.66
346.359	-20.82
346.81	-25.89
347.261	-75.21
347.712	-106.75
348.163	-124.29
348.613	-68.67
349.064	-41.16
349.515	-51.03
349.965	-28.4
350.416	-74.1
350.866	-88.82
351.317	-144.63
351.767	-285.34
352.217	-327.75
352.668	-239.24
353.118	-219.18
353.568	-326.06
354.018	-225.63
354.468	-222.34
354.918	-134.27
355.368	-127.4
355.818	-161.28
356.268	-551.11
356.718	-1646.08
357.168	-375.32
357.617	-228.75
358.067	-268.4
358.517	-223.03
358.966	-247.02
359.416	-139.38
359.865	-218.61
360.315	-271.78
360.764	-123.47
361.213	-43.63
361.663	-92.98
362.112	-152.47
362.561	-282.5
363.01	-204.05
363.459	-183.52
363.908	-227.35
364.357	-181.89
364.806	-388
365.255	-281.12
365.703	-232.39
366.152	-254.6
366.601	-185.2
367.05	-106.93
367.498	-71.12
367.947	-79.94
368.395	-81.64
368.844	-44.69
369.292	-101.34
369.74	-29.45
370.189	-40.56
370.637	-52.13
371.085	1.36
371.533	9.04
371.981	-37.47
372.429	-31.4
372.877	-24.82
373.325	-18.24
373.773	-57.15
374.221	-79.51
374.669	-129.74
375.116	-133
375.564	-149.91
376.012	-230.35
376.459	-178.74
376.907	-224.53
377.354	-304.2
377.801	-256.21
378.249	-264.64
378.696	-358.09
379.143	-354.39
379.591	-403.61
380.038	-710.55
380.485	-448.27
380.932	-419.71
381.379	-344.18
381.826	-203.57
382.273	-133.34
382.72	-161.01
383.166	-161.41
383.613	-94.3
384.06	-94.47
384.506	-111.22
384.953	-59.47
385.4	-71.01
385.846	-59.4
386.292	-72.53
386.739	-82.61
387.185	-93.35
387.631	-96.8
388.078	-83.01
388.524	-90.75
388.97	-69.13
389.416	-47.14
389.862	-60.1
390.308	-51.52
390.754	-47.5
391.2	-50.4
391.645	-56.02
392.091	-13.46
392.537	2.6
392.983	-15.08
393.428	20.57
393.874	6.73
394.319	15.06
394.765	39.52
395.21	27.54
395.655	16.74
396.101	9.64
396.546	13.22
396.991	-9.36
397.436	-12.79
397.881	-7.16
398.326	-26.8
398.771	-15.49
399.216	-16.19
399.661	-17.08
400.106	-10.67
400.551	-6.79
400.995	1.25
401.44	3.47
401.885	4.69
402.329	6.91
402.774	10.75
403.218	22.13
403.663	18.67
404.107	19.33
404.551	21.08
404.995	18.58
405.44	18.22
405.884	14.8
406.328	9
406.772	5.88
407.216	7.29
407.66	1.02
408.104	-8.52
408.547	-8.36
408.991	-8.34
409.435	-11.46
409.879	-7.92
410.322	-7.67
410.766	-5.79
411.209	-0.12
411.653	2.11
412.096	3.67
412.54	2.6
412.983	3.21
413.426	6.65
413.869	4.78
414.312	8.62
414.756	6.67
415.199	5.31
415.642	6.48
416.085	5.9
416.527	4.18
416.97	0.56
417.413	3.47
417.856	2.27
418.298	0.35
418.741	-2
419.184	-5.46
419.626	-11.13
420.069	-10.81
420.511	-11.48
420.953	-8.99
421.396	-8.41
421.838	-9.07
422.28	-9
422.722	-6.26
423.164	-6.74
423.606	-5.52
424.048	-5.06
424.49	0.26
424.932	-1.78
425.374	-2.39
425.816	-6.59
426.258	-7.57
426.699	-6.19
427.141	-4.93
427.582	-8.95
428.024	-9.68
428.465	-10.23
428.907	-12.51
429.348	-15.51
429.789	-11.11
430.231	-9.08
430.672	-7.74
431.113	-6.79
431.554	-4.48
431.995	-5.44
432.436	-2.23
432.877	-1.33
433.318	1.65
433.759	1.7
434.2	3.17
434.64	1.76
435.081	2.06
435.522	2.54
435.962	3.29
436.403	4.38
436.843	1.46
437.284	-1.8
437.724	-4.97
438.164	-9.93
438.604	-9.38
439.045	-8.49
439.485	-6.5
439.925	-8.28
440.365	-7.99
440.805	-8.56
441.245	-7.78
441.685	-6.83
442.125	-6.24
442.564	-3.62
443.004	-0.8
443.444	-0.65
443.883	0.3
444.323	-2.98
444.762	-5.94
445.202	-8.04
445.641	-6.99
446.081	-10.4
446.52	-8.28
446.959	-7.52
447.398	-6.58
447.837	-6.7
448.276	-6.38
448.716	-6.85
449.154	-7.64
449.593	-4.91
450.032	-3.95
450.471	-5.12
450.91	-5.34
451.349	-4.07
451.787	-4.03
452.226	-6.1
452.664	-6.47
453.103	-7.75
453.541	-8.22
453.98	-4.73
454.418	-3.05
454.856	-1.11
455.295	-1.39
455.733	-0.78
456.171	-2.06
456.609	0.59
457.047	1.46
457.485	3.56
457.923	5.81
458.361	5
458.798	3.13
459.236	0.7
459.674	-1.41
460.111	-0.91
460.549	-0.4
460.987	-1.63
461.424	-2.97
461.862	-3.93
462.299	-4.11
462.736	-3.05
463.173	-2.62
463.611	0.73
464.048	2.65
464.485	3.18
464.922	2.51
465.359	2.28
465.796	9.73
466.233	10.38
466.67	13
467.106	14.13
467.543	11.55
467.98	10.45
468.416	7.87
468.853	6.15
469.29	5.85
469.726	6.08
470.162	6.08
470.599	-0.09
471.035	-1.6
471.471	-2.7
471.907	-5.01
472.344	-4.63
472.78	-3.61
473.216	-3.6
473.652	-3.01
474.088	-3.2
474.523	-2.27
474.959	-3.03
475.395	-3.03
475.831	-2.46
476.266	-2.12
476.702	-2.78
477.138	-2.08
477.573	-2.47
478.008	-2.53
478.444	-1.83
478.879	-0.43
479.314	-0.04
479.75	0.48
480.185	0.39
480.62	0.09
481.055	-0.16
481.49	0.89
481.925	0.86
482.36	2.75
482.795	2.25
483.229	1.57
483.664	0.91
484.099	0.14
484.534	0.62
484.968	1.51
485.403	1.42
485.837	0.59
486.271	0.57
486.706	0.75
487.14	-1.03
487.574	-0.63
488.009	-0.54
488.443	-0.84
488.877	0.49
489.311	-0.5
489.745	-0.57
490.179	-0.68
490.613	1.4
491.046	1
491.48	0.68
491.914	1.44
492.348	1.17
492.781	1.6
493.215	1.76
493.648	-0.24
494.082	-0.14
494.515	-0.07
494.948	0.7
495.382	-1.19
495.815	-1.01
496.248	-0.83
496.681	-1.5
497.114	-1.93
497.547	-2.22
497.98	-1.41
498.413	0.23
498.846	0.85
499.279	0.44
499.711	-0.33
500.144	-0.27
500.577	0.61
501.009	0.49
501.442	1.9
501.874	2.91
502.306	2.86
502.739	4.8
503.171	4.46
503.603	4.42
504.036	4.23
504.468	4.78
504.9	5.11
505.332	4.05
505.764	4.35
506.196	3.26
506.627	3.01
507.059	3.08
507.491	-0.13
507.923	-0.08
508.354	0.4
508.786	0.44
509.217	0.13
509.649	-0.09
510.08	-0.24
510.512	0.18
510.943	0.65
511.374	0.98
511.805	0.57
512.237	0.55
512.668	0.08
513.099	-0.97
513.53	-1.19
513.961	-0.94
514.391	-1.2
514.822	0.25
515.253	-0.1
515.684	-0.61
516.114	-0.9
516.545	-0.1
516.975	0.52
517.406	0.21
517.836	-0.08
518.267	0.77
518.697	1.23
519.127	1.4
519.558	0.6
519.988	-0.08
520.418	-0.19
520.848	-0.97
521.278	-1.9
521.708	17.87
522.138	18.55
522.567	18.13
522.997	17.16
523.427	16.69
523.857	17.23
524.286	17.13
524.716	17.96
525.145	18.54
525.575	19.44
526.004	19.52
526.433	-0.13
526.863	-0.95
527.292	0.65
527.721	1.51
528.15	1.21
528.579	1.13
529.008	1.25
529.437	-0.15
529.866	-1.15
530.295	-1.81
530.724	-1.18
531.152	-1.16
531.581	-0.21
532.01	-0.87
532.438	-1.7
532.867	-1.9
533.295	-1.81
533.723	-1.88
534.152	-1.53
534.58	-0.64
535.008	0.03
535.436	0.7
535.865	0.72
536.293	-0.21
536.721	-0.56
537.149	-0.2
537.576	0.63
538.004	0.55
538.432	0.23
538.86	1.3
539.287	1.18
539.715	0.86
540.143	-0.25
540.57	0.01
540.998	0.14
541.425	1.86
541.852	1.75
542.28	1.45
542.707	1.42
543.134	1.14
543.561	0.57
543.988	0.24
544.415	-0.38
544.842	-0.54
545.269	-0.73
545.696	-0.16
546.123	-0.51
546.549	0.19
546.976	0.3
547.403	0.54
547.829	0.23
548.256	-0.03
548.682	-0.1
549.108	1.25
549.535	1.46
549.961	1.34
550.387	0.71
550.813	0.9
551.24	0.13
551.666	-0.62
552.092	-0.78
552.518	-0.67
552.943	0.18
553.369	0.2
553.795	-0.6
554.221	-0.47
554.646	-0.87
555.072	0.41
555.498	-0.95
555.923	-1.31
556.349	-1
556.774	-1.4
557.199	-1.45
557.625	-2.78
558.05	-2.14
558.475	-2.33
558.9	-2.55
559.325	-1.2
559.75	-1.18
560.175	-0.86
560.6	-1
561.025	-1.43
561.449	-1.45
561.874	-1.38
562.299	-0.66
562.723	-1.4
563.148	-1.22
563.572	-1.22
563.997	-2.31
564.421	-3.28
564.846	-3.47
565.27	-2.8
565.694	-2.19
566.118	-1.72
566.542	-0.91
566.966	-0.56
567.39	-0.02
567.814	0.67
568.238	0.75
568.662	0.56
569.086	0.87
569.509	-0.16
569.933	1.25
570.357	0.68
570.78	0.52
571.204	0.92
571.627	0.71
572.05	0.61
572.474	0.75
572.897	1.1
573.32	2.29
573.743	1.67
574.166	3.09
574.589	1.51
575.012	2.12
575.435	1.57
575.858	1.55
576.281	1.56
576.704	1.02
577.126	-0.07
577.549	-0.95
577.972	-2.16
578.394	-1.89
578.817	-0.18
579.239	-0.12
579.661	0.12
580.084	1.91
580.506	1.71
580.928	1.19
581.35	1.54
581.772	1.64
582.194	2.49
582.616	2.38
583.038	2.04
583.46	0.16
583.882	0.53
584.303	-0.79
584.725	-1.94
585.147	2
585.568	2.5
585.99	2.61
586.411	3.49
586.833	3.8
587.254	4.55
587.675	4.09
588.096	3.84
588.518	3.81
588.939	4.05
589.36	3.28
589.781	-2.16
590.202	0.33
590.623	0.25
591.043	-1.1
591.464	-1.56
591.885	-1.48
592.305	-1.33
592.726	-0.69
593.147	-0.8
593.567	0.44
593.987	1.04
594.408	1.15
594.828	-1.74
595.248	-1.32
595.669	-0.07
596.089	-0.23
596.509	-0.25
596.929	-0.15
597.349	-0.52
597.769	-0.77
598.189	-1.28
598.608	-1.41
599.028	-0.94
599.448	-0.45
599.867	-0.47
600.287	-1
600.706	-0.87
601.126	-0.53
601.545	0.36
601.965	0.29
602.384	0.52
602.803	0.1
603.222	0.62
603.641	0.51
604.061	0.74
604.48	0.46
604.898	0.59
605.317	0.41
605.736	-0.06
606.155	0.43
606.574	0.45
606.992	0.27
607.411	0.53
607.829	-0.91
608.248	-1.19
608.666	-1.61
609.085	-1.38
609.503	-1.47
609.921	-0.56
610.339	-0.85
610.758	-1.92
611.176	-1.98
611.594	-1.45
612.012	-1.57
612.43	-0.28
612.847	0.11
613.265	0.91
613.683	1.25
614.101	1.42
614.518	0.91
614.936	1.26
615.353	2.27
615.771	2.52
616.188	2.13
616.606	2.32
617.023	2.54
617.44	2.44
617.857	1.15
618.274	0.13
618.691	0.18
619.108	0.11
619.525	-0.68
619.942	-1.33
620.359	-1.3
620.776	-1.12
621.192	-0.37
621.609	0
622.026	0.26
622.442	0.83
622.859	0.55
623.275	0.19
623.691	-0.5
624.108	0.35
624.524	-0.28
624.94	-0.2
625.356	-0.19
625.772	-0.95
626.188	-1.64
626.604	-1.84
627.02	-2.18
627.436	-1.07
627.852	0.29
628.268	1.02
628.683	0.41
629.099	0.39
629.514	0.1
629.93	-0.43
630.345	-0.19
630.761	-0.43
631.176	-0.6
631.591	1.47
632.007	1.8
632.422	0.25
632.837	-0.59
633.252	0.61
633.667	1.04
634.082	0.8
634.497	1.63
634.911	2.94
635.326	3.07
635.741	3.41
636.155	2.02
636.57	2.19
636.984	3.2
637.399	4.94
637.813	4.04
638.228	3.84
638.642	4.24
639.056	3.67
639.47	2.64
639.884	2.02
640.298	1.78
640.712	2.53
641.126	2.31
641.54	1.01
641.954	-1.22
642.368	-0.44
642.781	1.91
643.195	1.53
643.609	1.85
644.022	1.85
644.436	1.92
644.849	0.95
645.262	-0.6
645.676	-1.51
646.089	-1.01
646.502	0.67
646.915	-0.41
647.328	-1.99
647.741	-1.96
648.154	-2.01
648.567	-0.2
648.98	0.38
649.393	1.56
649.805	1.8
650.218	2.14
650.631	2.44
651.043	2.14
651.456	2.57
651.868	2.49
652.28	2.26
652.693	0.89
653.105	-0.76
653.517	-1.52
653.929	-1.46
654.341	-0.2
654.753	0.21
655.165	-0.3
655.577	-0.8
655.989	-0.86
656.401	-1.83
656.813	-0.7
657.224	0.24
657.636	-0.31
658.047	0.93
658.459	1
658.87	-1.33
659.282	-1.95
659.693	-0.98
660.104	0.07
660.515	-0.06
660.926	-0.72
661.338	-1.68
661.749	-2.16
662.159	-1.47
662.57	-2.31
662.981	-2.53
663.392	-1.56
663.803	-1.55
664.213	-2.39
664.624	-3.36
665.035	-3.06
665.445	-2.89
665.855	-2.07
666.266	-1.12
666.676	-1.4
667.086	-1.46
667.497	-1.02
667.907	-0.44
668.317	-0.28
668.727	3
669.137	2.32
669.547	2.5
669.956	1.94
670.366	1.27
670.776	1.32
671.186	0.44
671.595	0.26
672.005	-1.15
672.414	-0.86
672.824	-0.03
673.233	-3.8
673.642	-2.96
674.052	-3.03
674.461	-1.74
674.87	-1.44
675.279	-0.09
675.688	-0.7
676.097	0.67
676.506	1.42
676.915	0.66
677.323	0.72
677.732	1.39
678.141	0.04
678.549	-0.75
678.958	-1.97
679.366	-2.64
679.775	-4.79
680.183	-2.41
680.592	-3.47
681	-3.55
681.408	-3.66
681.816	-5.2
682.224	-5.92
682.632	-3.27
683.04	-2.91
683.448	-2.52
683.856	-1.65
684.264	-0.89
684.671	-1.88
685.079	-2.59
685.487	-3.31
685.894	-3.32
686.302	-4.05
686.709	-3.42
687.116	-4.49
687.524	-3.81
687.931	-1.97
688.338	-1.48
688.745	-2.15
689.152	-3.47
689.559	-2.43
689.966	-0.08
690.373	0.5
690.78	2.1
691.187	1.27
691.593	1.52
692	1.33
692.407	1.34
692.813	3.24
693.22	4.75
693.626	3.83
694.032	4
694.439	3.8
694.845	3.48
695.251	2.64
695.657	3.68
696.063	1.83
696.469	1.58
696.875	1.08
697.281	-0.97
697.687	-3.08
698.093	-1.55
698.498	-1.87
698.904	-3.54
699.31	-3.3
699.715	-0.73
700.12	-1.21
700.526	0.37
700.931	-0.57
701.337	0.19
701.742	0.96
702.147	1.31
702.552	1.17
702.957	-0.37
703.362	-0.24
703.767	-0.23
704.172	-2.76
704.577	-3.18
704.981	-4.18
705.386	-3.23
705.791	-2.96
706.195	-4.29
706.6	-3.51
707.004	-4.25
707.408	-3.19
707.813	-1.91
708.217	-1.49
708.621	-1.39
709.025	-1.98
709.43	-0.41
709.834	-0.41
710.237	-1.42
710.641	-0.76
711.045	-0.62
711.449	0.37
711.853	3.29
712.256	1.76
712.66	1.19
713.064	1.15
713.467	3.37
713.87	2.77
714.274	3.3
714.677	4.09
715.08	3.6
715.484	3.74
715.887	5.94
716.29	2.3
716.693	4.42
717.096	4.71
717.499	5.55
717.901	4.21
718.304	3.58
718.707	2.85
719.109	2.16
719.512	2.1
719.915	4.28
720.317	2.73
720.719	2.58
721.122	0.78
721.524	1.07
721.926	5.33
722.328	5.51
722.731	5.79
723.133	5.05
723.535	3.31
723.937	3.23
724.338	3.32
724.74	4.84
725.142	51.51
725.544	54.68
725.945	65.4
726.347	61.93
726.748	61.82
727.15	63.04
727.551	67.14
727.952	67.31
728.354	67.28
728.755	66.18
729.156	63.39
729.557	18.2
729.958	16.04
730.359	5.66
730.76	4.14
731.161	4.55
731.562	2.16
731.962	-1.32
732.363	-1.06
732.763	-1.93
733.164	-5.01
733.564	-3.65
733.965	-1.8
734.365	-1.38
734.766	-1.49
735.166	-0.85
735.566	-0.25
735.966	1.21
736.366	2.03
736.766	2.67
737.166	2.29
737.566	4.09
737.966	3.25
738.365	2.18
738.765	1.97
739.165	1.28
739.564	0.64
739.964	-1.12
740.363	-2.48
740.763	-3.45
741.162	-2.47
741.561	-2.35
741.96	-3.2
742.36	-3.5
742.759	-3.08
743.158	-4.08
743.557	-4
743.955	-4.2
744.354	-3.06
744.753	-3.66
745.152	-2.5
745.55	-4.92
745.949	-4.32
746.348	-3.16
746.746	-4.4
747.144	-2.87
747.543	-3.41
747.941	-3.59
748.339	-3.32
748.737	-3.51
749.136	-2.19
749.534	-3.72
749.932	-0.66
750.33	-1.78
750.727	-2.87
751.125	-1.03
751.523	-2.05
751.921	1
752.318	2.07
752.716	3.87
753.113	4.04
753.511	3.66
753.908	3.52
754.305	6.87
754.703	8.15
755.1	9.28
755.497	8.9
755.894	7.75
756.291	5.97
756.688	5.26
757.085	3.39
757.482	4.21
757.878	6.94
758.275	9.11
758.672	1.23
759.068	0.35
759.465	-1.37
759.861	-3.13
760.258	-3.68
760.654	-5.1
761.05	-4.23
761.447	-5.68
761.843	-8.61
762.239	-9.93
762.635	-12.8
763.031	-13.46
763.427	-12.81
763.822	-11.39
764.218	-10.83
764.614	-9.27
765.01	-9.85
765.405	-10.15
765.801	-8.54
766.196	-7.13
766.592	-7.97
766.987	-7.14
767.382	-6.9
767.778	-7.22
768.173	-8.05
768.568	-7.73
768.963	-7.46
769.358	-7.31
769.753	-5.64
770.148	-5.08
770.542	-5.89
770.937	-5.36
771.332	-5.13
771.726	-4.87
772.121	-1.37
772.515	-0.5
772.91	-1.08
773.304	-0.62
773.699	-0.94
774.093	-2.62
774.487	-2.96
774.881	-2.83
775.275	-2.38
775.669	-2.69
776.063	-2.72
776.457	-3.81
776.851	-3.65
777.245	-2.66
777.638	-2.68
778.032	-3.02
778.425	-0.52
778.819	1.88
779.212	4.2
779.606	5.95
779.999	5.47
780.392	7.63
780.786	4.97
781.179	4.81
781.572	5.67
781.965	5.54
782.358	6.92
782.751	4.36
783.143	2.46
783.536	2.34
783.929	-0.54
784.322	0.91
784.714	-2.24
785.107	-1.49
785.499	0.39
785.891	1.06
786.284	-0.01
786.676	-0.62
787.068	2.09
787.46	1.36
787.852	-0.24
788.245	0.27
788.636	-1.79
789.028	0.32
789.42	2.57
789.812	2.44
790.204	1.43
790.595	5.41
790.987	5.72
791.378	4.74
791.77	4.04
792.161	2.77
792.553	2.93
792.944	4.76
793.335	2.94
793.726	2.22
794.117	4.76
794.508	2.48
794.899	-0.91
795.29	-2.27
795.681	-3.34
796.072	-3.89
796.463	15.67
796.853	19.47
797.244	18.77
797.634	19.95
798.025	20.19
798.415	14.23
798.806	18.09
799.196	19.51
799.586	23.02
799.976	24.7
800.366	25.53
800.756	3.66
801.146	1.59
801.536	0.96
801.926	0.15
802.316	-2.31
802.706	1.46
803.095	1.53
803.485	-0.67
803.874	-3.13
804.264	-5.46
804.653	-2.4
805.043	1.06
805.432	0.49
805.821	2.44
806.21	2.85
806.599	4.42
806.988	4.42
807.377	-0.84
807.766	-0.75
808.155	-1.83
808.544	-1.1
808.933	-3.22
809.321	-1.83
809.71	-6.73
810.098	-4.89
810.487	-8.49
810.875	-10.01
811.264	-12.41
811.652	0.71
812.04	2.59
812.428	4.1
812.816	0.48
813.204	3.67
813.592	-3.12
813.98	0.65
814.368	2.58
814.756	5.26
815.144	6.35
815.531	10.41
815.919	0.53
816.306	-0.73
816.694	-0.99
817.081	6.15
817.469	6.69
817.856	7.02
818.243	3.94
818.63	-2.84
819.017	-1.92
819.404	-3.1
819.791	-7.81
820.178	-15.92
820.565	-13.22
820.952	-5.82
821.339	-3.49
821.725	-5.16
822.112	-0.11
822.498	2.01
822.885	3.02
823.271	2.69
823.657	-2.55
824.044	-0.71
824.43	3.74
824.816	10.76
825.202	8.23
825.588	3.31
825.974	8.81
826.36	8.39
826.746	6.97
827.132	6.59
827.517	12.44
827.903	18.17
828.289	21.83
828.674	22.74
829.06	16.9
829.445	12.39
829.83	8.7
830.216	1.47
830.601	4.15
830.986	12.75
831.371	16.7
831.756	17.09
832.141	22.99
832.526	22.47
832.911	22.02
833.295	21.87
833.68	21.21
834.065	25.39
834.449	25.36
834.834	25.36
835.218	23.72
835.603	24.41
835.987	17.38
836.371	13.65
836.755	14.07
837.139	9.88
837.524	6.33
837.908	6.65
838.291	10.3
838.675	7.68
839.059	6.06
839.443	2
839.827	-3.99
840.21	-5.95
840.594	-3.98
840.977	-6.35
841.361	-4.23
841.744	-6.31
842.127	-4.21
842.511	-6.52
842.894	-7.79
843.277	-8.21
843.66	-9.89
844.043	-5.66
844.426	0.87
844.809	-3.76
845.191	0.1
845.574	1.57
845.957	3.78
846.339	5.03
846.722	3.19
847.104	4.25
847.487	-1.21
847.869	0.31
848.252	0.95
848.634	-0.09
849.016	0.04
849.398	-5.81
849.78	-8.88
850.162	-5.89
850.544	-5.8
850.926	-10.24
851.307	-10.37
851.689	-4.46
852.071	-6.62
852.452	-8.95
852.834	-11.08
853.215	-9.15
853.597	-8.53
853.978	-3.86
854.359	-4.22
854.741	-3.58
855.122	-2
855.503	-0.08
855.884	-4.49
856.265	-4.28
856.646	-9.33
857.026	-2.26
857.407	0.59
857.788	0.22
858.169	-4.6
858.549	3.68
858.93	0.11
859.31	3.69
859.69	6.1
860.071	8.74
860.451	12.75
860.831	16.08
861.211	6.32
861.591	1.46
861.971	-0.34
862.351	-0.83
862.731	-12.33
863.111	-9.85
863.491	-7.61
863.87	-12.45
864.25	-16.98
864.629	-12.61
865.009	-14.66
865.388	-7.15
865.768	-10.87
866.147	-7.97
866.526	0.26
866.905	4.41
867.284	-2.92
867.663	-14.79
868.042	-13.39
868.421	-10.65
868.8	-21.11
869.179	-15.76
869.558	-19.1
869.936	-14.17
870.315	-14.81
870.693	-12.34
871.072	-19.58
871.45	-17.64
871.828	-6.71
872.207	-3.67
872.585	-0.33
872.963	1.94
873.341	1.32
873.719	10.35
874.097	9.15
874.475	7.19
874.853	-2.04
875.23	1.26
875.608	5.61
875.986	4.98
876.363	1.34
876.741	15.11
877.118	23.57
877.495	25.76
877.873	24.31
878.25	21.94
878.627	18.69
879.004	21.74
879.381	19.86
879.758	25.38
880.135	18
880.512	18.52
880.889	-3.73
881.265	-12.81
881.642	-16.01
882.019	-21.21
882.395	-7.02
882.772	3.41
883.148	4.96
883.524	9.82
883.901	8.26
884.277	6.18
884.653	4.38
885.029	19.05
885.405	36.16
885.781	40.36
886.157	42.3
886.532	33.3
886.908	27.45
887.284	24.74
887.659	25.52
888.035	18.57
888.411	16.61
888.786	18.7
889.161	11.14
889.537	-2.17
889.912	-5.81
890.287	-6.54
890.662	-9.61
891.037	-14.4
891.412	-12.57
891.787	-19.86
892.162	-13.13
892.536	-9.68
892.911	-8.23
893.286	-13.38
893.66	-11.97
894.035	-8.64
894.409	-19.99
894.784	-13.62
895.158	-12.2
895.532	-12.48
895.906	-8.08
896.281	-11.58
896.655	0.62
897.029	-0.1
897.402	4.88
897.776	3.13
898.15	-1.67
898.524	4.38
898.898	-0.53
899.271	4.79
899.645	11.68
900.018	6.05
900.392	3.66
900.765	-6.57
901.138	-4.19
901.511	-8.89
901.884	4.21
902.258	4.13
902.631	14.4
903.003	13.8
903.376	8.85
903.749	2.87
904.122	4.07
904.495	-2.36
904.867	-9.65
905.24	-1.64
905.612	1.27
905.985	-11.5
906.357	-14.4
906.729	-25.39
907.102	-13.14
907.474	-12.35
907.846	-11.29
908.218	-9.27
908.59	8.84
908.962	6.45
909.334	-0.07
909.705	4.43
910.077	-0.9
910.449	-2.92
910.82	4.15
911.192	3.6
911.563	10.72
911.935	2.76
912.306	-12.41
912.677	-23.81
913.048	-2.9
913.419	-2.49
913.79	-22.91
914.161	-14.61
914.532	7.58
914.903	8.19
915.274	5.49
915.645	5.69
916.015	7.81
916.386	17.36
916.756	17.4
917.127	0.84
917.497	4.89
917.868	11.78
918.238	6.95
918.608	-11
918.978	-18.63
919.348	-34.15
919.718	-33.62
920.088	-26.32
920.458	-17.55
920.828	-31.46
921.198	-32.49
921.567	-37.93
921.937	-9.49
922.306	-16.57
922.676	-18.55
923.045	8.93
923.415	23.22
923.784	21.52
924.153	26.9
924.522	28.06
924.891	30.83
925.26	32.22
925.629	32.64
925.998	21.21
926.367	30.54
926.736	50.3
927.104	42.34
927.473	30.49
927.842	18.41
928.21	-0.9
928.578	-28.12
928.947	-3.67
929.315	3.59
929.683	12.78
930.051	12.58
930.42	15.95
930.788	5.11
931.156	-12.19
931.523	17.87
931.891	16.32
932.259	23.69
932.627	57.62
932.994	28.51
933.362	84.13
933.729	71.27
934.097	67.15
934.464	55.99
934.831	37.79
935.199	43.49
935.566	21.4
935.933	83.98
936.3	119.98
936.667	71.81
937.034	126.77
937.401	94.59
937.767	78.51
938.134	74.47
938.501	74.13
938.867	109.63
939.234	164.28
939.6	148.05
939.967	74.25
940.333	64
940.699	56.77
941.065	-2.18
941.431	-29.65
941.798	20.98
942.163	60.73
942.529	33.94
942.895	-4.48
943.261	5.08
943.627	15.23
943.992	13.3
944.358	0.23
944.723	47.78
945.089	38.26
945.454	47.3
945.82	20.31
946.185	-6.02
946.55	11.07
946.915	27.93
947.28	25.59
947.645	-5.67
948.01	21.9
948.375	34.38
948.74	-2.74
949.104	-25.81
949.469	-116.74
949.834	-224.56
950.198	-69.8
950.562	-8.67
950.927	-0.79
951.291	16.45
951.655	40.88
952.02	-13.1
952.384	-5.08
952.748	17.07
953.112	68.07
953.476	97.69
953.839	86.35
954.203	86.95
954.567	81.58
954.931	83.92
955.294	88.59
955.658	96.13
956.021	151.16
956.385	175.33
956.748	189.14
957.111	-34.35
957.474	-214.17
957.837	-192.13
958.2	-299.47
958.563	-60.02
958.926	-3.33
959.289	-92.45
959.652	-134.88
960.015	-63.39
960.377	-84.05
960.74	-45.94
961.102	-93.73
961.465	-60.37
961.827	382.02
962.189	629.03
962.552	478.97
962.914	335.72
963.276	250.78
963.638	193.74
964	168.53
964.362	146.89
964.724	101.28
965.085	76.87
965.447	69.83
965.809	-21.91
966.17	-20.65
966.532	-27.9
966.893	-12.79
967.255	-17.48
967.616	-22.27
967.977	-20.62
968.338	-43.77
968.699	-17.38
969.061	-14.3
969.421	-8.27
969.782	-17.72
970.143	-8.31
970.504	13.76
970.865	15.26
971.225	39.78
971.586	47.96
971.946	60.25
972.307	68.51
972.667	58.12
973.027	40.49
973.388	8.98
973.748	22.93
974.108	50.11
974.468	-30.11
974.828	45.05
975.188	14.44
975.548	9.13
975.907	17.7
976.267	3.93
976.627	27.09
976.986	37.29
977.346	30.89
977.705	44.91
978.064	26.36
978.424	35.15
978.783	-5.02
979.142	-7.67
979.501	-3.61
979.86	-9.24
980.219	-20.83
980.578	-57.97
980.937	-87.86
981.296	-67.01
981.654	-66.95
982.013	-117.68
982.371	-149.8
982.73	-80.81
983.088	-70.74
983.447	-74.15
983.805	-63.86
984.163	-35.32
984.521	29.15
984.879	-93.06
985.237	-194.69
985.595	180.27
985.953	-14.22
986.311	-40.19
986.669	-38.48
987.026	-49.1
987.384	-89.27
987.741	-133.64
988.099	-42.24
988.456	-24.08
988.814	12.36
989.171	3.2
989.528	-40.63
989.885	-44.83
990.242	-18.04
990.599	-70.85
990.956	-58.87
991.313	-35.06
991.67	-16.07
992.027	15.06
992.383	6.63
992.74	15.79
993.096	19.17
993.453	30.38
993.809	27.37
994.165	28.96
994.522	92.29
994.878	92.61
995.234	108.02
995.59	83.42
995.946	-3.04
996.302	17.73
996.658	-36.26
997.013	-74.9
997.369	-78.08
997.725	-80.23
998.08	-47.13
998.436	-250.07
998.791	-336.04
999.147	-320.46
999.502	-306.09
999.857	-203.31
1000.212	-405.61
1000.567	-398.15
1000.922	-187.99
1001.277	-114.82
1001.632	-62.82
1001.987	-84.61
1002.342	-59.39
1002.696	-33.33
1003.051	-12.85
1003.406	-16.17
1003.76	-40.08
1004.114	-21.52
1004.469	-13.49
1004.823	6.12
1005.177	2.37
1005.531	-3.72
1005.885	-1.97
1006.239	13.73
1006.593	33.16
1006.947	48.74
1007.301	28.64
1007.655	49.6
1008.008	38.02
1008.362	33.31
1008.715	23.82
1009.069	22.5
1009.422	131.78
1009.776	230.08
1010.129	122.11
1010.482	61.93
1010.835	7.76
1011.188	36.52
1011.541	11.99
1011.894	44.83
1012.247	315.68
1012.6	-42.05
1012.952	-5.54
1013.305	-82.01
1013.657	-46.66
1014.01	-24.92
1014.362	-36.73
1014.715	24.14
1015.067	34.91
1015.419	40
1015.771	45.49
1016.123	48.04
1016.475	56.8
1016.827	46.65
1017.179	62.71
1017.531	54.01
1017.883	41.02
1018.234	97.75
1018.586	96.17
1018.938	143.83
1019.289	194.96
1019.64	170.15
1019.992	150.38
1020.343	124.11
1020.694	167.28
1021.045	140.78
1021.396	137.95
1021.747	187.32
1022.098	150.91
1022.449	95.1
1022.8	60.98
1023.151	61.25
1023.501	84.29
1023.852	88.76
1024.202	115.76
1024.553	93.11
1024.903	117.49
1025.253	134.25
1025.604	123.57
1025.954	123.7
1026.304	130.95
1026.654	151.04
1027.004	167.28
1027.354	137.05
1027.703	137.37
1028.053	31.21
1028.403	8.62
1028.753	-408.06
1029.102	-996.31
1029.452	-7845.2
1029.801	-306.23
1030.15	-193.93
1030.499	-234.15
897.758	1656.66
901.051	1597.31
904.343	1626.11
907.636	1630.74
910.928	1678.78
914.22	1618.61
917.511	1621.85
920.803	1654
924.094	1646.54
927.384	1653.89
930.675	1624.1
933.965	1601.04
937.255	1629.09
940.544	1607.65
943.834	1599.47
947.123	1554.04
950.411	1622.72
953.7	1611.79
956.988	1604.47
960.276	1547.8
963.563	1576.56
966.851	1585.57
970.138	1613.24
973.424	1613.64
976.711	1574.53
979.997	1613.34
983.283	1644.06
986.568	1593.8
989.853	1581.75
993.138	1594.94
996.423	1666.2
999.708	1637.6
1002.992	1657.61
1006.275	1589.62
1009.559	1590.53
1012.842	1663.73
1016.125	1631.24
1019.408	1613.87
1022.69	1648.59
1025.972	1673.12
1029.254	1658.38
1032.536	1633.31
1035.817	1636.2
1039.098	1613.82
1042.379	1649.7
1045.659	1669.69
1048.939	1627.1
1052.219	1626.88
1055.498	1620.8
1058.778	1614.89
1062.057	1596.53
1065.335	1615.17
1068.614	1618.77
1071.892	1616.26
1075.17	1654.54
1078.447	1656.41
1081.724	1650.22
1085.001	1667.54
1088.278	1650.62
1091.554	1649.72
1094.83	1649.83
1098.106	1673.52
1101.382	1693.13
1104.657	1691.33
1107.932	1690.75
1111.206	1673.97
1114.481	1637.95
1117.755	1641.08
1121.029	1636.5
1124.302	1679.01
1127.575	1659.83
1130.848	1658.41
1134.121	1639.03
1137.393	1607.33
1140.665	1651.4
1143.937	1633.82
1147.208	1597.47
1150.48	1642.06
1153.75	1629.8
1157.021	1628.29
1160.291	1614.04
1163.561	1650.4
1166.831	1623.27
1170.101	1638.12
1173.37	1611.27
1176.639	1581.13
1179.907	1614
1183.176	1628.71
1186.444	1632.26
1189.711	1649.78
1192.979	1669.89
1196.246	1638.7
1199.513	1647.85
1202.78	1652.68
1206.046	1660.02
1209.312	1681.16
1212.578	1689.99
1215.843	1664.42
1219.108	1643.67
1222.373	1659.64
1225.638	1641.49
1228.902	1635.91
1232.166	1604.35
1235.43	1596.73
1238.693	1617.77
1241.956	1613.24
1245.219	1649.96
1248.482	1638.11
1251.744	1640.52
1255.006	1722.23
1258.268	1682.75
1261.529	1656.45
1264.79	1655.34
1268.051	1724.86
1271.312	1730.43
1274.572	1705.01
1277.832	1695.28
1281.092	1678.29
1284.351	1674.82
1287.61	1664.16
1290.869	1622.22
1294.128	1621.09
1297.386	1646.55
1300.644	1640.15
1303.902	1647.91
1307.159	1554.31
1310.416	1590.89
1313.673	1610.66
1316.93	1614.04
1320.186	1632.99
1323.442	1655.2
1326.697	1655.99
1329.953	1635.01
1333.208	1667.95
1336.463	1649.14
1339.717	1624.69
1342.972	1700.52
1346.226	1683
1349.479	1653.49
1352.733	1637.86
1355.986	1645.18
1359.238	1630.93
1362.491	1635.64
1365.743	1638.19
1368.995	1632.22
1372.247	1644.54
1375.498	1656.97
1378.749	1692.75
1382	1658.11
1385.251	1678.11
1388.501	1646.13
1391.751	1646.93
1395	1628.8
1398.25	1647.89
1401.499	1670.41
1404.748	1635.86
1407.996	1622.77
1411.244	1619.07
1414.492	1607.5
1417.74	1600.79
1420.987	1605.79
1424.234	1650.58
1427.481	1619.58
1430.728	1660.15
1433.974	1643.3
1437.22	1639.29
1440.465	1634.91
1443.711	1639.46
1446.956	1651.74
1450.201	1632.6
1453.445	1659.23
1456.689	1650.78
1459.933	1657.41
1463.177	1688.94
1466.42	1667.76
1469.663	1652.36
1472.906	1665.07
1476.148	1697.51
1479.391	1664.82
1482.633	1650.56
1485.874	1669.2
1489.115	1677
1492.356	1663.37
1495.597	1644.99
1498.838	1636.38
1502.078	1628.95
1505.318	1614.95
1508.557	1634.11
1511.797	1631.52
1515.036	1671.97
1518.274	1642.47
1521.513	1599.58
1524.751	1605.09
1527.989	1621.23
1531.227	1635.61
1534.464	1644.48
1537.701	1634.53
1540.938	1639.42
1544.174	1600.04
1547.41	1592.79
1550.646	1618.1
1553.882	1653.1
1557.117	1697.27
1560.352	1700.66
1563.587	1670.56
1566.821	1649.22
1570.055	1657.6
1573.289	1641.61
1576.523	1677.75
1579.756	1689.19
1582.989	1702.01
1586.222	1670.39
1589.454	1696.98
1592.686	1686.36
1595.918	1705.25
1599.15	1704.23
1602.381	1731.47
1605.612	1721.94
1608.843	1788.57
1612.073	1734.32
1615.303	1729.13
1618.533	1723.74
1621.762	1724.94
1624.992	1696.59
1628.221	1697.48
1631.449	1688.99
1634.678	1707.25
1637.906	1684.47
1641.134	1700.71
1644.361	1675.24
1647.588	1670.92
1650.815	1688.1
1654.042	1660.3
1657.269	1678.23
1660.495	1669.28
1663.72	1654.23
1666.946	1631.11
1670.171	1617.88
1673.396	1597.81
1676.621	1584.62
1679.845	1580.54
1683.069	1582.06
1686.293	1599.23
1689.517	1597.84
1692.74	1567.59
1695.963	1581.93
1699.185	1612.21
1702.408	1596.74
1705.63	1614.46
1708.852	1629.05
1712.073	1606.91
1715.294	1621.81
1718.515	1654.32
1721.736	1626.08
1724.956	1612.43
1728.176	1628.95
1731.396	1642.24
1734.616	1636.89
1737.835	1665.88
1741.054	1642.75
1744.272	1638.43
1747.491	1672.54
1750.709	1684.66
1753.927	1654.15
1757.144	1672.03
1760.361	1713.49
1763.578	1691.82
1766.795	1657.37
1770.011	1645.49
1773.227	1662.7
1776.443	1694.24
1779.658	1723.67
1782.874	1679.98
1786.089	1675.04
1789.303	1676.33
1792.518	1675.08
1795.732	1667.67
1798.945	1679.91
1802.159	1712.64
1805.372	1675.22
1808.585	1670.94
1811.797	1672.38
1815.01	1690.44
1818.222	1713.67
1821.434	1682.48
1824.645	1710.07
1827.856	1719.22
1831.067	1739.97
1834.278	1695.24
1837.488	1682.49
1840.698	1769.58
1843.908	1733.29
1847.117	1712.6
1850.326	1662.29
1853.535	1703.09
1856.744	1733.73
1859.952	1680.66
1863.16	1682.62
1866.368	1698.34
1869.575	1785.15
1872.782	1699.78
1875.989	1655.17
1879.196	1689.01
1882.402	1684.49
1885.608	1708.24
1888.814	1670.57
1892.019	1608.43
1895.224	1649.5
1898.429	1623.72
1901.634	1611.88
1904.838	1595.08
1908.042	1643
1911.246	1653.89
1914.449	1630.23
1917.652	1616.51
1920.855	1602.44
1924.058	1616.87
1927.26	1653.85
1930.462	1669.74
1933.664	1701.69
1936.865	1660.37
1940.066	1672.08
1943.267	1630.79
1946.467	1638.53
1949.668	1648.79
1952.868	1701.99
1956.067	1700.15
1959.267	1654.81
1962.466	1672.4
1965.665	1654.97
1968.863	1654.21
1972.061	1652.35
1975.259	1646.46
1978.457	1700.39
1981.654	1669.8
1984.852	1670.76
1988.048	1640.53
1991.245	1628.24
1994.441	1698.06
1997.637	1656.84
2000.833	1645.9
2004.028	1667.63
2007.223	1717.71
2010.418	1708.35
2013.613	1670.06
2016.807	1670.08
2020.001	1664.6
2023.194	1676.92
2026.388	1665.33
2029.581	1620.91
2032.774	1673.35
2035.966	1681.93
2039.158	1644.24
2042.35	1657.9
2045.542	1602.21
2048.733	1661.45
2051.924	1647.25
2055.115	1659.46
2058.306	1637.57
2061.496	1674.53
2064.686	1712.62
2067.875	1639.13
2071.065	1637.6
2074.254	1650.31
2077.442	1616.42
2080.631	1678.78
2083.819	1635.31
2087.007	1630.86
2090.195	1622.43
2093.382	1628.66
2096.569	1622.34
2099.756	1592.54
2102.942	1635.5
2106.128	1645.08
2109.314	1638.3
2112.5	1630.81
2115.685	1604.8
2118.87	1609.9
2122.055	1657.59
2125.239	1641.36
2128.424	1635.73
2131.608	1669.61
2134.791	1659.84
2137.974	1684.5
2141.157	1678.35
2144.34	1658.78
2147.523	1647.24
2150.705	1670.77
2153.887	1642.14
2157.068	1626.87
2160.25	1607.98
2163.431	1624.45
2166.611	1605.07
2169.792	1621.71
2172.972	1555.88
2176.152	1592.78
2179.331	1610.66
2182.511	1614.75
2185.69	1629.13
2188.868	1634.23
2192.047	1658.05
2195.225	1678.7
2198.403	1636.77
2201.58	1626.81
2204.758	1611.66
2207.935	1667.58
2211.111	1608.13
2214.288	1599.79
2217.464	1624.35
2220.64	1589.49
2223.815	1627.14
2226.991	1575.67
2230.166	1583.9
2233.34	1618.51
2236.515	1628.86
2239.689	1680.3
2242.863	1643.01
2246.036	1679.69
2249.209	1668.45
2252.382	1682.8
2255.555	1690.36
2258.727	1657.42
2261.9	1676.44
2265.071	1674.28
2268.243	1670.96
2271.414	1635.01
2274.585	1623.9
2277.756	1669.45
2280.926	1639.77
2284.096	1656.57
2287.266	1606.37
2290.436	1646.47
2293.605	1655.9
2296.774	1688.97
2299.942	1690.42
2303.111	1703.77
2306.279	1743.62
2309.447	1732.82
2312.614	1713.02
2315.781	1730.4
2318.948	1715.43
2322.115	1743.14
2325.281	1662.2
2328.447	1668.76
2331.613	1643.6
2334.779	1640.39
2337.944	1635.38
2341.109	1637.85
2344.274	1630.51
2347.438	1606.04
2350.602	1622.84
2353.766	1626.22
2356.929	1620.82
2360.092	1647.59
2363.255	1627.08
2366.418	1609.33
2369.58	1640.91
2372.742	1609.91
2375.904	1591.24
2379.066	1585.48
2382.227	1602.43
2385.388	1571.3
2388.548	1542.76
2391.709	1567.03
2394.869	1565.43
2398.029	1597.75
2401.188	1587.91
2404.347	1571.69
2407.506	1574.97
2410.665	1618.7
2413.823	1601.38
2416.981	1588.53
2420.139	1600.48
2423.296	1628.52
2426.453	1608.7
2429.61	1624.02
2432.767	1609.12
2435.923	1639.36
2439.079	1595.31
2442.235	1619.95
2445.391	1577.26
2448.546	1612.61
2451.701	1636.33
2454.855	1636.77
2458.009	1652.4
2461.163	1641.51
2464.317	1621
2467.471	1638.99
2470.624	1661.5
2473.777	1660.11
2476.929	1672.35
2480.082	1687.62
2483.234	1671.97
2486.385	1624.61
2489.537	1620.72
2492.688	1618.9
2495.839	1636.94
2498.989	1646.16
2502.14	1637.35
2505.29	1632.34
2508.439	1648.35
2511.589	1607.86
2514.738	1605.66
2517.887	1619.57
2521.035	1682.05
2524.183	1643.66
2527.331	1637.87
2530.479	1632.98
2533.627	1636.84
